# total [l(l+1)/2pi] C_l's (units: [microK]^2)
# for l=2 to 3000, i.e. number of multipoles equal to 2999
#
# -> if you don't want to see such a header, set 'headers' to 'no' in input file
# -> for CMB lensing (d), these are C_l^dd for the deflection field.
#    Remember the conversion factors:
#    C_l^dd (deflection) = l(l+1) C_l^phi-phi
#    C_l^gg (shear/convergence) = 1/4 (l(l+1))^2 C_l^phi-phi
#
# 1:l     2:TT                     3:EE                     4:BB                     5:TE                     6:dd                     7:dT                     8:dE                 
    2       1.187449398863e+03       3.123713453057e-02       0.000000000000e+00       2.225006945193e+00       4.455241203207e-08       3.600273401656e-03      -1.140686526032e-05 
    3       1.087230869872e+03       3.892557409362e-02       0.000000000000e+00       2.430342171067e+00       5.637828632218e-08       3.634959613372e-03      -1.188677507966e-05 
    4       1.004069566497e+03       3.314291412711e-02       0.000000000000e+00       2.273100995633e+00       6.610834197975e-08       3.564660784933e-03      -9.692192172273e-06 
    5       9.440073723897e+02       2.202887965159e-02       0.000000000000e+00       1.991581899068e+00       7.463446049250e-08       3.455657818457e-03      -6.142146239270e-06 
    6       9.030313684105e+02       1.263576556528e-02       0.000000000000e+00       1.689863622288e+00       8.217866340929e-08       3.332058461613e-03      -2.323148879842e-06 
    7       8.758766488254e+02       7.479024386126e-03       0.000000000000e+00       1.420818915558e+00       8.886336550970e-08       3.205524369205e-03       9.323014280562e-07 
    8       8.588640225214e+02       5.547569469507e-03       0.000000000000e+00       1.205032231062e+00       9.482581616457e-08       3.080941630561e-03       3.117928435974e-06 
    9       8.487058550679e+02       4.868101220165e-03       0.000000000000e+00       1.047729753144e+00       1.002236114260e-07       2.961010808189e-03       4.062822782962e-06 
   10       8.438465024303e+02       4.205909844578e-03       0.000000000000e+00       9.454061234305e-01       1.051764058954e-07       2.848725201864e-03       3.890604289366e-06 
   11       8.430892591272e+02       3.348648657291e-03       0.000000000000e+00       8.892013685985e-01       1.063339181708e-07       2.740069399144e-03       2.922833966025e-06 
   12       8.447218316472e+02       2.578037798227e-03       0.000000000000e+00       8.683548336932e-01       1.101516886824e-07       2.642401012813e-03       1.607895721861e-06 
   13       8.484750103713e+02       2.125997963090e-03       0.000000000000e+00       8.728355983588e-01       1.136008763896e-07       2.540748405111e-03       3.124642102310e-07 
   14       8.539220594440e+02       1.994229800196e-03       0.000000000000e+00       8.938668840950e-01       1.167197940211e-07       2.449721440527e-03      -6.606390164513e-07 
   15       8.607912372074e+02       2.061803558884e-03       0.000000000000e+00       9.248925381073e-01       1.195434531785e-07       2.365029720540e-03      -1.180560081510e-06 
   16       8.685883959351e+02       2.236279426575e-03       0.000000000000e+00       9.625071791522e-01       1.220986571645e-07       2.281383158407e-03      -1.265923527831e-06 
   17       8.773407891625e+02       2.503547790931e-03       0.000000000000e+00       1.005266976893e+00       1.244107665227e-07       2.202709305034e-03      -1.030777486871e-06 
   18       8.867702421836e+02       2.891385194211e-03       0.000000000000e+00       1.053378958348e+00       1.264539309298e-07       2.127298347761e-03      -6.596477688505e-07 
   19       8.969117303796e+02       3.412525116418e-03       0.000000000000e+00       1.107754808498e+00       1.283904487911e-07       2.057209113745e-03      -2.941624909916e-07 
   20       9.075264617390e+02       4.066777438877e-03       0.000000000000e+00       1.168852186625e+00       1.300874929453e-07       1.991384533108e-03      -7.905494656793e-08 
   21       9.186903362620e+02       4.846110911471e-03       0.000000000000e+00       1.236095552118e+00       1.316288215837e-07       1.929647203893e-03      -5.373048051226e-08 
   22       9.303315430961e+02       5.738035102759e-03       0.000000000000e+00       1.307946917520e+00       1.329908828978e-07       1.869305080873e-03      -1.929312931276e-07 
   23       9.424188108074e+02       6.744704849117e-03       0.000000000000e+00       1.382275786910e+00       1.342410937057e-07       1.811691496455e-03      -4.346468086334e-07 
   24       9.547910861546e+02       7.871142993601e-03       0.000000000000e+00       1.456315314679e+00       1.353333021573e-07       1.757733890653e-03      -6.828021969042e-07 
   25       9.675587785334e+02       9.115852956262e-03       0.000000000000e+00       1.527633999731e+00       1.363202365302e-07       1.707307178620e-03      -8.712144412392e-07 
   26       9.807763693089e+02       1.047656737049e-02       0.000000000000e+00       1.593864381561e+00       1.371814837696e-07       1.658534810354e-03      -9.462911401239e-07 
   27       9.943487553574e+02       1.196412311801e-02       0.000000000000e+00       1.653940465930e+00       1.379432886824e-07       1.611538396176e-03      -9.126271904593e-07 
   28       1.008074274768e+03       1.359352259179e-02       0.000000000000e+00       1.707338212676e+00       1.385709697220e-07       1.566321242266e-03      -8.057821810512e-07 
   29       1.022025607896e+03       1.537441134608e-02       0.000000000000e+00       1.754121281388e+00       1.391355377887e-07       1.523603918082e-03      -6.631311094606e-07 
   30       1.036280775466e+03       1.731497126508e-02       0.000000000000e+00       1.794726501486e+00       1.396569912371e-07       1.483372626634e-03      -5.366378292186e-07 
   31       1.050834854373e+03       1.942317143231e-02       0.000000000000e+00       1.829681232404e+00       1.400581465072e-07       1.444635078396e-03      -4.840734346332e-07 
   32       1.065699541043e+03       2.170548333102e-02       0.000000000000e+00       1.858896143019e+00       1.403827100780e-07       1.407485531876e-03      -5.093407436947e-07 
   33       1.080819722566e+03       2.416762242504e-02       0.000000000000e+00       1.882116065726e+00       1.406583205554e-07       1.371711166474e-03      -5.907903844292e-07 
   34       1.096086212972e+03       2.681495248593e-02       0.000000000000e+00       1.898999234549e+00       1.408497829883e-07       1.336562835716e-03      -6.975080431460e-07 
   35       1.111510325985e+03       2.965289550667e-02       0.000000000000e+00       1.908757787748e+00       1.409882793859e-07       1.302484371258e-03      -8.047588339457e-07 
   36       1.127096972416e+03       3.268660402621e-02       0.000000000000e+00       1.910378743556e+00       1.410805868170e-07       1.270006409887e-03      -8.836926097213e-07 
   37       1.142823146018e+03       3.592108575300e-02       0.000000000000e+00       1.902906676662e+00       1.410888251425e-07       1.239326630793e-03      -9.054422981997e-07 
   38       1.158744504128e+03       3.936211458497e-02       0.000000000000e+00       1.886123426174e+00       1.410506419012e-07       1.210658832739e-03      -8.738864000817e-07 
   39       1.174915765397e+03       4.301558991633e-02       0.000000000000e+00       1.860094553347e+00       1.410010610523e-07       1.183897949073e-03      -8.082352748456e-07 
   40       1.191357148206e+03       4.688727966336e-02       0.000000000000e+00       1.824996037826e+00       1.409272279946e-07       1.158422313399e-03      -7.362711759973e-07 
   41       1.208058696699e+03       5.098257092643e-02       0.000000000000e+00       1.781040455201e+00       1.407833151958e-07       1.133353526280e-03      -6.880120510176e-07 
   42       1.225004421973e+03       5.530564928684e-02       0.000000000000e+00       1.728210328769e+00       1.405915567286e-07       1.108735674011e-03      -6.699244102927e-07 
   43       1.242149389468e+03       5.986003488767e-02       0.000000000000e+00       1.666449372282e+00       1.403769206527e-07       1.084760618239e-03      -6.802874313930e-07 
   44       1.259408822552e+03       6.464877203070e-02       0.000000000000e+00       1.595736800441e+00       1.401322752511e-07       1.061424219367e-03      -7.154076670939e-07 
   45       1.276693987231e+03       6.967477994763e-02       0.000000000000e+00       1.516007219037e+00       1.398304205757e-07       1.038610109863e-03      -7.699650026646e-07 
   46       1.294040581906e+03       7.494209332716e-02       0.000000000000e+00       1.426878919639e+00       1.394952470498e-07       1.016481138835e-03      -8.389580649823e-07 
   47       1.311512997812e+03       8.045494706347e-02       0.000000000000e+00       1.327846388523e+00       1.391546059172e-07       9.951956179227e-04      -9.161292830457e-07 
   48       1.329167315225e+03       8.621742595237e-02       0.000000000000e+00       1.218351162707e+00       1.388163920393e-07       9.747780891290e-04      -9.931916405987e-07 
   49       1.347050193745e+03       9.223345963304e-02       0.000000000000e+00       1.097778342548e+00       1.384624658433e-07       9.550954818145e-04      -1.059601186859e-06 
   50       1.365193639916e+03       9.850645712332e-02       0.000000000000e+00       9.655742213307e-01       1.380604986843e-07       9.359418008627e-04      -1.105522617603e-06 
   51       1.383600210229e+03       1.050381052117e-01       0.000000000000e+00       8.216449062386e-01       1.376244414932e-07       9.173943272681e-04      -1.132743246194e-06 
   52       1.402251873432e+03       1.118292351589e-01       0.000000000000e+00       6.660598703550e-01       1.371742804423e-07       8.995569895607e-04      -1.147732847422e-06 
   53       1.421112509371e+03       1.188801331018e-01       0.000000000000e+00       4.989424522796e-01       1.367169771282e-07       8.824504460605e-04      -1.159010543511e-06 
   54       1.440126605266e+03       1.261905180344e-01       0.000000000000e+00       3.204720683509e-01       1.362428815940e-07       8.659987787063e-04      -1.177356981525e-06 
   55       1.459239089693e+03       1.337600428777e-01       0.000000000000e+00       1.308018685862e-01       1.357340512675e-07       8.500807935855e-04      -1.213092462168e-06 
   56       1.478463591118e+03       1.415899938967e-01       0.000000000000e+00      -7.021731813775e-02       1.352039898025e-07       8.347398802257e-04      -1.266183216544e-06 
   57       1.497828852674e+03       1.496819748879e-01       0.000000000000e+00      -2.828256323272e-01       1.346702091466e-07       8.200268975189e-04      -1.332880493458e-06 
   58       1.517358610404e+03       1.580374194764e-01       0.000000000000e+00      -5.072766945933e-01       1.341416217474e-07       8.059338422840e-04      -1.408244905803e-06 
   59       1.537071113076e+03       1.666575894775e-01       0.000000000000e+00      -7.438386878299e-01       1.336163258066e-07       7.923855978698e-04      -1.486031120092e-06 
   60       1.556978642018e+03       1.755435732585e-01       0.000000000000e+00      -9.927954393913e-01       1.330791880134e-07       7.792313336373e-04      -1.558568395993e-06 
   61       1.577089379514e+03       1.846956637562e-01       0.000000000000e+00      -1.254380425169e+00       1.325099152088e-07       7.663015195597e-04      -1.618463804890e-06 
   62       1.597414590376e+03       1.941113330934e-01       0.000000000000e+00      -1.528559023210e+00       1.319180107649e-07       7.536226849033e-04      -1.664679568508e-06 
   63       1.617962207614e+03       2.037867983675e-01       0.000000000000e+00      -1.815199082499e+00       1.313185411242e-07       7.412585374869e-04      -1.698268258668e-06 
   64       1.638734228483e+03       2.137175809780e-01       0.000000000000e+00      -2.114132662750e+00       1.307216363134e-07       7.292467147638e-04      -1.720761965714e-06 
   65       1.659726308824e+03       2.238984853051e-01       0.000000000000e+00      -2.425154988250e+00       1.301312636736e-07       7.175951252998e-04      -1.734217295910e-06 
   66       1.680927357411e+03       2.343235773887e-01       0.000000000000e+00      -2.748023401699e+00       1.295438983430e-07       7.062781453318e-04      -1.741261874039e-06 
   67       1.702319130295e+03       2.449861636064e-01       0.000000000000e+00      -3.082456318046e+00       1.289470871992e-07       6.952326704087e-04      -1.745142351204e-06 
   68       1.723883829591e+03       2.558796091878e-01       0.000000000000e+00      -3.428187507365e+00       1.283256443780e-07       6.843875309537e-04      -1.749020263240e-06 
   69       1.745629594557e+03       2.670000340089e-01       0.000000000000e+00      -3.785144054378e+00       1.276869130730e-07       6.737716937794e-04      -1.753494143050e-06 
   70       1.767569470674e+03       2.783441272433e-01       0.000000000000e+00      -4.153302744524e+00       1.270427852569e-07       6.634313744047e-04      -1.758417707193e-06 
   71       1.789713664876e+03       2.899083560129e-01       0.000000000000e+00      -4.532638287733e+00       1.264021889215e-07       6.533974966950e-04      -1.763583915753e-06 
   72       1.812069344611e+03       3.016889655450e-01       0.000000000000e+00      -4.923123687330e+00       1.257704003136e-07       6.436837411234e-04      -1.768719302703e-06 
   73       1.834640436905e+03       3.136819793303e-01       0.000000000000e+00      -5.324730608942e+00       1.251483035627e-07       6.342845231824e-04      -1.773478123111e-06 
   74       1.857427427421e+03       3.258831992807e-01       0.000000000000e+00      -5.737429749399e+00       1.245315961810e-07       6.251729019431e-04      -1.777436317163e-06 
   75       1.880427159520e+03       3.382882058867e-01       0.000000000000e+00      -6.161191205643e+00       1.239099389175e-07       6.162984187651e-04      -1.780085291031e-06 
   76       1.903635771471e+03       3.508919413383e-01       0.000000000000e+00      -6.595954092538e+00       1.232715450885e-07       6.076069063255e-04      -1.780981197835e-06 
   77       1.927058570622e+03       3.636873707752e-01       0.000000000000e+00      -7.041528184596e+00       1.226210493345e-07       5.991113137835e-04      -1.780254887154e-06 
   78       1.950701603128e+03       3.766665760610e-01       0.000000000000e+00      -7.497674925039e+00       1.219664072998e-07       5.908360934272e-04      -1.778229051809e-06 
   79       1.974568541170e+03       3.898211429053e-01       0.000000000000e+00      -7.964136328271e+00       1.213135759203e-07       5.827957950531e-04      -1.775277315125e-06 
   80       1.998660546362e+03       4.031421524686e-01       0.000000000000e+00      -8.440634718210e+00       1.206661109458e-07       5.749939822012e-04      -1.771827174159e-06 
   81       2.022976133165e+03       4.166201729691e-01       0.000000000000e+00      -8.926872466613e+00       1.200247370325e-07       5.674221139865e-04      -1.768363010168e-06 
   82       2.047511032300e+03       4.302452512885e-01       0.000000000000e+00      -9.422531731409e+00       1.193868896945e-07       5.600583925287e-04      -1.765429166288e-06 
   83       2.072258054155e+03       4.440069045778e-01       0.000000000000e+00      -9.927274195022e+00       1.187462284045e-07       5.528665759783e-04      -1.763633092437e-06 
   84       2.097210211549e+03       4.578945511505e-01       0.000000000000e+00      -1.044076232918e+01       1.180956956827e-07       5.458092114480e-04      -1.763520093789e-06 
   85       2.122370982018e+03       4.718989036228e-01       0.000000000000e+00      -1.096272781294e+01       1.174390753388e-07       5.388938964454e-04      -1.765154297644e-06 
   86       2.147745504278e+03       4.860107924104e-01       0.000000000000e+00      -1.149291402988e+01       1.167822663196e-07       5.321362276114e-04      -1.768439829036e-06 
   87       2.173337389540e+03       5.002207459798e-01       0.000000000000e+00      -1.203105564875e+01       1.161298023138e-07       5.255457701550e-04      -1.773237149802e-06 
   88       2.199148639695e+03       5.145189898369e-01       0.000000000000e+00      -1.257687872358e+01       1.154846053835e-07       5.191254621654e-04      -1.779359755701e-06 
   89       2.225179565509e+03       5.288954455166e-01       0.000000000000e+00      -1.313010079379e+01       1.148477244150e-07       5.128710017723e-04      -1.786570787458e-06 
   90       2.251428704810e+03       5.433397295716e-01       0.000000000000e+00      -1.369043098434e+01       1.142180580305e-07       5.067702171525e-04      -1.794579555709e-06 
   91       2.277892740681e+03       5.578411525608e-01       0.000000000000e+00      -1.425757010579e+01       1.135920616064e-07       5.008024193835e-04      -1.803037979868e-06 
   92       2.304566419652e+03       5.723887180392e-01       0.000000000000e+00      -1.483121075448e+01       1.129634380411e-07       4.949377381442e-04      -1.811536940902e-06 
   93       2.331444662398e+03       5.869712498274e-01       0.000000000000e+00      -1.541103364820e+01       1.123257405898e-07       4.891474078307e-04      -1.819691972593e-06 
   94       2.358529436666e+03       6.015777979137e-01       0.000000000000e+00      -1.599669578545e+01       1.116818346355e-07       4.834388171593e-04      -1.827430916771e-06 
   95       2.385823771593e+03       6.161972920148e-01       0.000000000000e+00      -1.658784068214e+01       1.110366448942e-07       4.778270757515e-04      -1.834764020676e-06 
   96       2.413329606276e+03       6.308184194737e-01       0.000000000000e+00      -1.718410202516e+01       1.103943432585e-07       4.723244638448e-04      -1.841699898956e-06 
   97       2.441047738058e+03       6.454296260099e-01       0.000000000000e+00      -1.778510372080e+01       1.097582152179e-07       4.669401532062e-04      -1.848245296157e-06 
   98       2.468977770819e+03       6.600191164687e-01       0.000000000000e+00      -1.839045994321e+01       1.091305186787e-07       4.616799205539e-04      -1.854404841904e-06 
   99       2.497118063258e+03       6.745748555719e-01       0.000000000000e+00      -1.899977518282e+01       1.085123350218e-07       4.565458534872e-04      -1.860180798762e-06 
  100       2.525465677183e+03       6.890845686669e-01       0.000000000000e+00      -1.961264429481e+01       1.079034122351e-07       4.515360489237e-04      -1.865572802784e-06 
  101       2.554016325798e+03       7.035357424770e-01       0.000000000000e+00      -2.022865254757e+01       1.073019999570e-07       4.466443040454e-04      -1.870577596746e-06 
  102       2.582764321986e+03       7.179156258512e-01       0.000000000000e+00      -2.084737567108e+01       1.067046762689e-07       4.418597997520e-04      -1.875188756067e-06 
  103       2.611702526602e+03       7.322112305139e-01       0.000000000000e+00      -2.146837990544e+01       1.061061660716e-07       4.371667766227e-04      -1.879396407415e-06 
  104       2.640824127648e+03       7.464096430550e-01       0.000000000000e+00      -2.209122823353e+01       1.055013034952e-07       4.325500513942e-04      -1.883191372030e-06 
  105       2.670128362923e+03       7.604990072818e-01       0.000000000000e+00      -2.271549993379e+01       1.048919594959e-07       4.280135779706e-04      -1.886579193462e-06 
  106       2.699615477612e+03       7.744676765840e-01       0.000000000000e+00      -2.334077377135e+01       1.042816115230e-07       4.235650174856e-04      -1.889568402963e-06 
  107       2.729284931210e+03       7.883039186639e-01       0.000000000000e+00      -2.396662216466e+01       1.036732815446e-07       4.192100621645e-04      -1.892166175358e-06 
