# total lensed [l(l+1)/2pi] C_l's (units: [microK]^2)
# for l=2 to 2500, i.e. number of multipoles equal to 2499
#
# -> if you don't want to see such a header, set 'headers' to 'no' in input file
# -> for CMB lensing (d), these are C_l^dd for the deflection field.
#    Remember the conversion factors:
#    C_l^dd (deflection) = l(l+1) C_l^phi-phi
#    C_l^gg (shear/convergence) = 1/4 (l(l+1))^2 C_l^phi-phi
#
# 1:l     2:TT                     3:EE                     4:BB                     5:TE                     6:dd                     7:dT                     8:dE                 
    2       1.078414125891e+03       3.115175500127e-02       1.826110150216e-06       2.434238468124e+00       4.659165973531e-08       3.272647071996e-03      -1.190828462873e-05 
    3       1.005094854012e+03       3.969862187551e-02       3.652824661545e-06       2.724105152667e+00       5.832500703996e-08       3.288024862243e-03      -1.266877476726e-05 
    4       9.407036310164e+02       3.425987535892e-02       6.089375458194e-06       2.554827937780e+00       6.799570230171e-08       3.214464314864e-03      -1.060926204787e-05 
    5       8.936720940449e+02       2.288693390967e-02       9.136544377385e-06       2.200414655199e+00       7.641153549236e-08       3.109514378962e-03      -7.084729583870e-06 
    6       8.615127699582e+02       1.292340117492e-02       1.279528840686e-05       1.805607782244e+00       8.375684295728e-08       2.993526956194e-03      -3.230509163334e-06 
    7       8.407229986040e+02       7.195940527661e-03       1.706672672072e-05       1.452156112710e+00       9.023287989314e-08       2.875428767902e-03       7.176503133690e-08 
    8       8.279656682130e+02       4.876470341704e-03       2.195212568294e-05       1.175690615006e+00       9.604588029820e-08       2.760177513333e-03       2.286215605140e-06 
    9       8.214741958126e+02       4.055826039469e-03       2.745288210579e-05       9.848985259930e-01       1.013271985773e-07       2.651644842260e-03       3.238466798084e-06 
   10       8.194521174812e+02       3.481937688610e-03       3.357050508366e-05       8.727969633214e-01       1.061189129364e-07       2.551405959907e-03       3.070030392396e-06 
   11       8.205456270053e+02       2.866253691131e-03       4.030659674895e-05       8.246217727718e-01       1.071833199840e-07       2.462614803569e-03       2.142172619441e-06 
   12       8.244727821840e+02       2.383596599591e-03       4.766283231623e-05       8.223719463801e-01       1.108202630231e-07       2.368146144641e-03       8.900793785850e-07 
   13       8.300950968435e+02       2.172879104532e-03       5.564093979228e-05       8.491633972939e-01       1.140895226196e-07       2.283795400042e-03      -2.781069000951e-07 
   14       8.370747898228e+02       2.195527281555e-03       6.424267973336e-05       8.922669600133e-01       1.170301392688e-07       2.198130371436e-03      -1.098929700367e-06 
   15       8.456215911820e+02       2.347471551529e-03       7.346982542628e-05       9.429487333563e-01       1.196766222216e-07       2.121201018053e-03      -1.446639092275e-06 
   16       8.550289214960e+02       2.580527244941e-03       8.332414385664e-05       9.966110350177e-01       1.220590501014e-07       2.049346988436e-03      -1.363695375989e-06 
   17       8.652902032534e+02       2.916491049476e-03       9.380737780637e-05       1.051985691346e+00       1.242029093675e-07       1.980717379489e-03      -9.993592030526e-07 
   18       8.762273055301e+02       3.394827887018e-03       1.049212290723e-04       1.109796646236e+00       1.260816224119e-07       1.912916041496e-03      -5.594300240246e-07 
   19       8.878927225762e+02       4.023688613436e-03       1.166673453303e-04       1.171353614157e+00       1.278596505733e-07       1.848748160402e-03      -1.863384401228e-07 
   20       9.000412351677e+02       4.794622741881e-03       1.290473034913e-04       1.237752756736e+00       1.294019296343e-07       1.788962683548e-03      -8.751297108992e-09 
   21       9.126699116787e+02       5.700754328571e-03       1.420626054608e-04       1.308889640932e+00       1.307931854441e-07       1.733916932154e-03      -4.864453619391e-08 
   22       9.256424912346e+02       6.733579658834e-03       1.557146608351e-04       1.383620877043e+00       1.320095432983e-07       1.681163286769e-03      -2.567046741585e-07 
   23       9.390680800992e+02       7.894524531619e-03       1.700047920677e-04       1.459379370166e+00       1.331191644572e-07       1.631641541112e-03      -5.530074795200e-07 
   24       9.529642202729e+02       9.186801268671e-03       1.849342167394e-04       1.532803060134e+00       1.340753573053e-07       1.585539407366e-03      -8.262451930975e-07 
   25       9.672931445794e+02       1.061118339937e-02       2.005040649414e-04       1.601714917666e+00       1.349310767129e-07       1.541240959564e-03      -1.011415601763e-06 
   26       9.818899965421e+02       1.216894827601e-02       2.167153574317e-04       1.664316186620e+00       1.356654035453e-07       1.495636144096e-03      -1.064902966870e-06 
   27       9.967431669996e+02       1.387222533794e-02       2.335690268014e-04       1.719791983154e+00       1.363048323186e-07       1.451045555464e-03      -9.995599980559e-07 
   28       1.011817481490e+03       1.573663915508e-02       2.510659029520e-04       1.767790919771e+00       1.368146294195e-07       1.410905699364e-03      -8.603091207441e-07 
   29       1.027165541405e+03       1.777273981512e-02       2.692067667368e-04       1.808482104739e+00       1.372659575919e-07       1.375370884468e-03      -6.913201251385e-07 
   30       1.042776466925e+03       1.998970216938e-02       2.879922978569e-04       1.842403402819e+00       1.376784312293e-07       1.341928753750e-03      -5.518266643666e-07 
   31       1.058566381997e+03       2.239635335863e-02       3.074230780484e-04       1.870184010955e+00       1.379738757043e-07       1.306984767169e-03      -5.060001401839e-07 
   32       1.074584592499e+03       2.499938741617e-02       3.274996870889e-04       1.891762671895e+00       1.381959840072e-07       1.271339750620e-03      -5.524942966971e-07 
   33       1.090865798210e+03       2.780439541213e-02       3.482226340054e-04       1.906883630151e+00       1.383726774751e-07       1.237241612347e-03      -6.572997170457e-07 
   34       1.107391569178e+03       3.081664589170e-02       3.695923538343e-04       1.915150172041e+00       1.384689586369e-07       1.206579952585e-03      -7.756948941318e-07 
   35       1.124175248312e+03       3.404241386019e-02       3.916092981188e-04       1.915514048150e+00       1.385159529898e-07       1.179178093599e-03      -8.820059947045e-07 
   36       1.141193632636e+03       3.748805878339e-02       4.142738718274e-04       1.906586843428e+00       1.385202172570e-07       1.153452476111e-03      -9.518204798869e-07 
   37       1.158388118626e+03       4.115962227474e-02       4.375864339758e-04       1.887069326675e+00       1.384435774617e-07       1.127357084182e-03      -9.618131790763e-07 
   38       1.175769629835e+03       4.506273225733e-02       4.615473878635e-04       1.856817455072e+00       1.383234757414e-07       1.101005909689e-03      -9.185192471094e-07 
   39       1.193339277526e+03       4.920262327376e-02       4.861571200069e-04       1.816131136423e+00       1.381948028989e-07       1.075096852645e-03      -8.433457062792e-07 
   40       1.211054588212e+03       5.358412807410e-02       5.114159764875e-04       1.765482481048e+00       1.380446695777e-07       1.050217694575e-03      -7.668884390199e-07 
   41       1.228857817821e+03       5.821180226917e-02       5.373242793586e-04       1.705345902476e+00       1.378272827880e-07       1.026780798458e-03      -7.216736879620e-07 
   42       1.246782650604e+03       6.309041117621e-02       5.638823813096e-04       1.635596348315e+00       1.375646979466e-07       1.004883753005e-03      -7.128701368075e-07 
   43       1.264874762852e+03       6.822455658969e-02       5.910906294827e-04       1.555933064585e+00       1.372817099355e-07       9.843178054054e-04      -7.355930264901e-07 
   44       1.283159920210e+03       7.361852319075e-02       6.189493524904e-04       1.466041468151e+00       1.369711513360e-07       9.645399488599e-04      -7.818435555915e-07 
   45       1.301648842093e+03       7.927629124041e-02       6.474588519334e-04       1.365593723604e+00       1.366058725171e-07       9.448798632726e-04      -8.419773681696e-07 
   46       1.320358692977e+03       8.520161760706e-02       6.766193703681e-04       1.254254942636e+00       1.362095458482e-07       9.254079955982e-04      -9.109733725821e-07 
   47       1.339294288615e+03       9.139795122774e-02       7.064311163354e-04       1.131675760763e+00       1.358097949356e-07       9.063583174324e-04      -9.842086477448e-07 
   48       1.358439859429e+03       9.786839195807e-02       7.368942744368e-04       9.974884840137e-01       1.354144189677e-07       8.878839964079e-04      -1.055650554023e-06 
   49       1.377757265525e+03       1.046156759373e-01       7.680090062716e-04       8.513054172909e-01       1.350053668501e-07       8.700406813202e-04      -1.117701503906e-06 
   50       1.397203972190e+03       1.116420123793e-01       7.997754224796e-04       6.927702956045e-01       1.345504964587e-07       8.528192368437e-04      -1.163425575859e-06 
   51       1.416796869692e+03       1.189485756703e-01       8.321934877505e-04       5.217329140049e-01       1.340635801342e-07       8.363026945719e-04      -1.194703165957e-06 
   52       1.436562691188e+03       1.265358501097e-01       8.652630916503e-04       3.381190094267e-01       1.335643818772e-07       8.205417336651e-04      -1.217071911155e-06 
   53       1.456518931501e+03       1.344037453213e-01       8.989840748490e-04       1.418821083972e-01       1.330597555822e-07       8.054971257957e-04      -1.237780180283e-06 
   54       1.476672992045e+03       1.425515746267e-01       9.333562286982e-04      -6.699564565144e-02       1.325400971259e-07       7.910261616371e-04      -1.265963058281e-06 
   55       1.497026265648e+03       1.509785447943e-01       9.683792761288e-04      -2.885271783043e-01       1.319875855720e-07       7.769456193954e-04      -1.310290201909e-06 
   56       1.517589538274e+03       1.596854173025e-01       1.004052809756e-03      -5.228003276749e-01       1.314155349418e-07       7.632824191267e-04      -1.370434469816e-06 
   57       1.538369915675e+03       1.686732218894e-01       1.040376337658e-03      -7.699163866350e-01       1.308412328912e-07       7.500902669466e-04      -1.442784177314e-06 
   58       1.559365570516e+03       1.779427796691e-01       1.077349299584e-03      -1.029967452358e+00       1.302734639699e-07       7.373738069842e-04      -1.522609992272e-06 
   59       1.580565079750e+03       1.874947014288e-01       1.114971065801e-03      -1.303036554067e+00       1.297103241921e-07       7.250815944427e-04      -1.603957336937e-06 
   60       1.601946762007e+03       1.973293859259e-01       1.153240935947e-03      -1.589197780787e+00       1.291368359453e-07       7.130987690273e-04      -1.679534927514e-06 
   61       1.623488547660e+03       2.074463060919e-01       1.192158186085e-03      -1.888495907177e+00       1.285329210697e-07       7.012950492561e-04      -1.742298250594e-06 
   62       1.645201676939e+03       2.178416842705e-01       1.231722224833e-03      -2.200879637979e+00       1.279079229787e-07       6.897057300534e-04      -1.791100604353e-06 
   63       1.667103424318e+03       2.285102897655e-01       1.271932470394e-03      -2.526253538071e+00       1.272766791241e-07       6.783976253312e-04      -1.826726807714e-06 
   64       1.689206911366e+03       2.394460810713e-01       1.312788305817e-03      -2.864496699761e+00       1.266491561607e-07       6.674156412981e-04      -1.850394876552e-06 
   65       1.711520778322e+03       2.506421815769e-01       1.354289079374e-03      -3.215462220022e+00       1.260292428254e-07       6.567795906527e-04      -1.863797480071e-06 
   66       1.734048855677e+03       2.620908552681e-01       1.396434104940e-03      -3.578976677736e+00       1.254134412750e-07       6.464808793257e-04      -1.869144793804e-06 
   67       1.756789835745e+03       2.737834824307e-01       1.439222662373e-03      -3.954839610930e+00       1.247894536477e-07       6.364790657716e-04      -1.869208749273e-06 
   68       1.779741124950e+03       2.857115141938e-01       1.482654134185e-03      -4.342848269858e+00       1.241422868307e-07       6.267243345880e-04      -1.866772926996e-06 
   69       1.802912041207e+03       2.978696150695e-01       1.526728446893e-03      -4.742878869032e+00       1.234791399991e-07       6.172411847182e-04      -1.862680535147e-06 
   70       1.826312712970e+03       3.102531164519e-01       1.571445720186e-03      -5.154820935528e+00       1.228116937103e-07       6.080635956617e-04      -1.857278580871e-06 
   71       1.849949917605e+03       3.228570948410e-01       1.616806142347e-03      -5.578553611313e+00       1.221487109685e-07       5.992093068593e-04      -1.850965737288e-06 
   72       1.873826859893e+03       3.356763725800e-01       1.662809974108e-03      -6.013945776924e+00       1.214953619466e-07       5.906778545509e-04      -1.844195195902e-06 
   73       1.897942950532e+03       3.487055185924e-01       1.709457552524e-03      -6.460856175153e+00       1.208524971040e-07       5.824485395218e-04      -1.837477581009e-06 
   74       1.922293584633e+03       3.619388491196e-01       1.756749294832e-03      -6.919133534722e+00       1.202158672110e-07       5.744783257370e-04      -1.831383926120e-06 
   75       1.946869920222e+03       3.753704284573e-01       1.804685702318e-03      -7.388616693964e+00       1.195752887921e-07       5.666996698649e-04      -1.826548712391e-06 
   76       1.971662977754e+03       3.889936216898e-01       1.853267443933e-03      -7.869122466275e+00       1.189191545255e-07       5.590430936159e-04      -1.823532036523e-06 
   77       1.996677291315e+03       4.027996570973e-01       1.902495616192e-03      -8.360406408415e+00       1.182519921783e-07       5.515171974935e-04      -1.822355179057e-06 
   78       2.021919355928e+03       4.167788017176e-01       1.952371537912e-03      -8.862195089579e+00       1.175815932750e-07       5.441463447327e-04      -1.822844280007e-06 
   79       2.047393396640e+03       4.309207777812e-01       2.002896680077e-03      -9.374197589343e+00       1.169137871411e-07       5.369468644349e-04      -1.824754893681e-06 
   80       2.073101235630e+03       4.452147542614e-01       2.054072671337e-03      -9.896105369979e+00       1.162520467605e-07       5.299261417446e-04      -1.827766213825e-06 
   81       2.099042159315e+03       4.596493384250e-01       2.105901303511e-03      -1.042759214877e+01       1.155970677957e-07       5.230816788198e-04      -1.831475134112e-06 
   82       2.125212785452e+03       4.742125673829e-01       2.158384537086e-03      -1.096831377032e+01       1.149463200775e-07       5.164001265973e-04      -1.835390143972e-06 
   83       2.151606930255e+03       4.888918996408e-01       2.211524506717e-03      -1.151790807888e+01       1.142935708695e-07       5.098562873522e-04      -1.838925059763e-06 
   84       2.178218495483e+03       5.036746983627e-01       2.265323421790e-03      -1.207600812383e+01       1.136318840693e-07       5.034238449065e-04      -1.841549997675e-06 
   85       2.205050970779e+03       5.185497917223e-01       2.319783237122e-03      -1.264228457116e+01       1.129649505856e-07       4.971129583574e-04      -1.843302234650e-06 
   86       2.232109270292e+03       5.335061569359e-01       2.374905937495e-03      -1.321641012149e+01       1.122985354222e-07       4.909400896515e-04      -1.844390009971e-06 
   87       2.259396771816e+03       5.485324513656e-01       2.430693641433e-03      -1.379804689702e+01       1.116370668683e-07       4.849165545222e-04      -1.845047230567e-06 
   88       2.286915234654e+03       5.636170123335e-01       2.487148604929e-03      -1.438684653795e+01       1.109833958391e-07       4.790479998752e-04      -1.845534691183e-06 
   89       2.314664717481e+03       5.787478569370e-01       2.544273225188e-03      -1.498245029883e+01       1.103385404009e-07       4.733338659998e-04      -1.846141317748e-06 
   90       2.342643496208e+03       5.939126818627e-01       2.602070044363e-03      -1.558448914503e+01       1.097014151316e-07       4.677668336041e-04      -1.847185433927e-06 
   91       2.370847981840e+03       6.090988632016e-01       2.660541753287e-03      -1.619258384907e+01       1.090685449712e-07       4.623322556759e-04      -1.849016050865e-06 
   92       2.399272638345e+03       6.242934562634e-01       2.719691195216e-03      -1.680634508710e+01       1.084337632128e-07       4.570075741684e-04      -1.852014180126e-06 
   93       2.427912007919e+03       6.394833712090e-01       2.779521281888e-03      -1.742537244533e+01       1.077907556635e-07       4.517704396880e-04      -1.856499272029e-06 
   94       2.456767313655e+03       6.546559305674e-01       2.840034719145e-03      -1.804925105931e+01       1.071423084960e-07       4.466265142659e-04      -1.862421260682e-06 
   95       2.485840702671e+03       6.697983956164e-01       2.901234246765e-03      -1.867755464512e+01       1.064932199395e-07       4.415868096107e-04      -1.869601775761e-06 
   96       2.515133174694e+03       6.848978002351e-01       2.963122724956e-03      -1.930984662455e+01       1.058475521107e-07       4.366592392099e-04      -1.877820493870e-06 
   97       2.544644528844e+03       6.999409531310e-01       3.025703136887e-03      -1.994568020658e+01       1.052085008114e-07       4.318483335242e-04      -1.886812492240e-06 
   98       2.574373310431e+03       7.149144400690e-01       3.088978591226e-03      -2.058459846877e+01       1.045782579263e-07       4.271549476858e-04      -1.896265542037e-06 
   99       2.604316757740e+03       7.298046260986e-01       3.152952324672e-03      -2.122613443875e+01       1.039578662630e-07       4.225759617025e-04      -1.905817341257e-06 
  100       2.634470748825e+03       7.445976577828e-01       3.217627704486e-03      -2.186981117566e+01       1.033470666758e-07       4.181039731655e-04      -1.915052687221e-06 
  101       2.664829748299e+03       7.592794654253e-01       3.283008231026e-03      -2.251514185153e+01       1.027441373141e-07       4.137269824622e-04      -1.923500588670e-06 
  102       2.695386754125e+03       7.738357652993e-01       3.349097540279e-03      -2.316162983281e+01       1.021457248365e-07       4.094280704935e-04      -1.930631317449e-06 
  103       2.726133244406e+03       7.882520618749e-01       3.415899406398e-03      -2.380876876174e+01       1.015466674330e-07       4.051850688964e-04      -1.935853399800e-06 
  104       2.757061054336e+03       8.025140124040e-01       3.483417828473e-03      -2.445605015320e+01       1.009419097909e-07       4.009773742086e-04      -1.938648263341e-06 
  105       2.788168410414e+03       8.166085719629e-01       3.551657298765e-03      -2.510298717843e+01       1.003332626003e-07       3.968087156556e-04      -1.939012188805e-06 
  106       2.819454615960e+03       8.305230079618e-01       3.620622575597e-03      -2.574909426094e+01       9.972410447928e-08       3.926883576029e-04      -1.937097917072e-06 
  107       2.850918162135e+03       8.442445577366e-01       3.690318605769e-03      -2.639388001009e+01       9.911737041552e-08       3.886242314451e-04      -1.933086066732e-06 
