# total [l(l+1)/2pi] C_l's (units: [microK]^2)
# for l=2 to 3000, i.e. number of multipoles equal to 2999
#
# -> if you don't want to see such a header, set 'headers' to 'no' in input file
# -> for CMB lensing (d), these are C_l^dd for the deflection field.
#    Remember the conversion factors:
#    C_l^dd (deflection) = l(l+1) C_l^phi-phi
#    C_l^gg (shear/convergence) = 1/4 (l(l+1))^2 C_l^phi-phi
#
# 1:l     2:TT                     3:EE                     4:BB                     5:TE                     6:dd                     7:dT                     8:dE                 
    2       1.069917364287e+03       6.318793741427e-02       0.000000000000e+00       3.723224435522e+00       4.944754578969e-08       3.196734149889e-03      -1.744021596827e-05 
    3       1.006045436944e+03       1.146020940013e-01       0.000000000000e+00       4.859005081607e+00       6.141119776281e-08       3.229834130138e-03      -2.247102718027e-05 
    4       9.427214312449e+02       1.436840624585e-01       0.000000000000e+00       5.182207991063e+00       7.130481005113e-08       3.175968629960e-03      -2.407872641000e-05 
    5       8.920630967783e+02       1.436982727754e-01       0.000000000000e+00       4.989303484537e+00       7.991735011999e-08       3.089402765374e-03      -2.301395583893e-05 
    6       8.540238017323e+02       1.209204224369e-01       0.000000000000e+00       4.506203568882e+00       8.747441020558e-08       2.987984704665e-03      -1.991117686479e-05 
    7       8.264818929250e+02       8.784426164598e-02       0.000000000000e+00       3.895028977498e+00       9.411602917851e-08       2.880460643692e-03      -1.548766644753e-05 
    8       8.078258350000e+02       5.618005787713e-02       0.000000000000e+00       3.256581827377e+00       9.999119163403e-08       2.772011122298e-03      -1.046489425302e-05 
    9       7.957394665962e+02       3.292029822246e-02       0.000000000000e+00       2.654683039680e+00       1.052481793850e-07       2.665507220083e-03      -5.505830998677e-06 
   10       7.891236555861e+02       1.965535658189e-02       0.000000000000e+00       2.130073207458e+00       1.100131366736e-07       2.562665069834e-03      -1.152910938609e-06 
   11       7.867222779500e+02       1.417703572101e-02       0.000000000000e+00       1.707121872573e+00       1.112130296531e-07       2.469689743838e-03       2.183605150321e-06 
   12       7.873389454427e+02       1.287765215092e-02       0.000000000000e+00       1.397606724749e+00       1.148547150574e-07       2.372868990913e-03       4.364520186559e-06 
   13       7.908080201860e+02       1.270374644551e-02       0.000000000000e+00       1.200235800353e+00       1.181140909156e-07       2.282096349516e-03       5.340413572922e-06 
   14       7.962669120842e+02       1.206744739148e-02       0.000000000000e+00       1.102656362901e+00       1.210359740111e-07       2.202420198588e-03       5.232053032364e-06 
   15       8.031597695397e+02       1.076606772622e-02       0.000000000000e+00       1.085878265638e+00       1.236568385603e-07       2.125068377674e-03       4.240855632418e-06 
   16       8.114685735821e+02       9.350474159086e-03       0.000000000000e+00       1.126422341959e+00       1.260059575136e-07       2.052073693516e-03       2.660861794513e-06 
   17       8.207095340669e+02       8.438724822103e-03       0.000000000000e+00       1.201104133679e+00       1.281104400900e-07       1.984484653947e-03       8.049473634511e-07 
   18       8.308458280923e+02       8.306600883761e-03       0.000000000000e+00       1.289711233589e+00       1.299434047744e-07       1.921121912165e-03      -1.029069363129e-06 
   19       8.418965210241e+02       8.781237823833e-03       0.000000000000e+00       1.378846740594e+00       1.316757751917e-07       1.863476528356e-03      -2.620235122133e-06 
   20       8.534365306784e+02       9.485050700214e-03       0.000000000000e+00       1.455560054886e+00       1.331672334628e-07       1.808945556307e-03      -3.780200798063e-06 
   21       8.655114806602e+02       1.014096256385e-02       0.000000000000e+00       1.515516570093e+00       1.345059763481e-07       1.756594057261e-03      -4.421875352322e-06 
   22       8.780882927422e+02       1.052459637368e-02       0.000000000000e+00       1.557988721483e+00       1.356669332573e-07       1.703782413176e-03      -4.547837314494e-06 
   23       8.911260460198e+02       1.073482308851e-02       0.000000000000e+00       1.584927523713e+00       1.367208149114e-07       1.652524190867e-03      -4.213082152099e-06 
   24       9.044507671087e+02       1.100533822677e-02       0.000000000000e+00       1.600192342596e+00       1.376189042088e-07       1.605042383950e-03      -3.543708252760e-06 
   25       9.181574647081e+02       1.153533371945e-02       0.000000000000e+00       1.608617945989e+00       1.384159126269e-07       1.561695885795e-03      -2.669880863133e-06 
   26       9.322904534701e+02       1.249882511296e-02       0.000000000000e+00       1.615848903637e+00       1.390898281749e-07       1.520671105089e-03      -1.756202573315e-06 
   27       9.467263967058e+02       1.389310903997e-02       0.000000000000e+00       1.625962342034e+00       1.396681679945e-07       1.480619986619e-03      -9.378708344779e-07 
   28       9.612381852302e+02       1.564889886098e-02       0.000000000000e+00       1.642257659023e+00       1.401151054331e-07       1.439721446392e-03      -3.423989079353e-07 
   29       9.758884453713e+02       1.771907913915e-02       0.000000000000e+00       1.665201987186e+00       1.405043312814e-07       1.399169365043e-03      -1.764783650589e-08 
   30       9.907607635889e+02       2.004717657554e-02       0.000000000000e+00       1.693944769826e+00       1.408560389427e-07       1.360810549365e-03       3.039683939270e-08 
   31       1.005867480896e+03       2.257151654836e-02       0.000000000000e+00       1.726782690999e+00       1.410890953436e-07       1.325860333696e-03      -1.779387012192e-07 
   32       1.021233021623e+03       2.528810797177e-02       0.000000000000e+00       1.760665063891e+00       1.412486265755e-07       1.294454981521e-03      -5.939854820811e-07 
   33       1.036823062818e+03       2.821079159903e-02       0.000000000000e+00       1.791357210093e+00       1.413635378293e-07       1.265507201361e-03      -1.132295280263e-06 
   34       1.052556838798e+03       3.134677695507e-02       0.000000000000e+00       1.814134116659e+00       1.413976597103e-07       1.237208321043e-03      -1.682999822051e-06 
   35       1.068461025544e+03       3.466767136466e-02       0.000000000000e+00       1.826056560621e+00       1.413830424414e-07       1.209437089439e-03      -2.179266749690e-06 
   36       1.084557763818e+03       3.812748319021e-02       0.000000000000e+00       1.824423839488e+00       1.413262917421e-07       1.182273927768e-03      -2.557314971619e-06 
   37       1.100836527467e+03       4.168600150716e-02       0.000000000000e+00       1.806790191885e+00       1.411877829735e-07       1.155524314453e-03      -2.753862950457e-06 
   38       1.117316835112e+03       4.536523766571e-02       0.000000000000e+00       1.773158216312e+00       1.410060791976e-07       1.129468418589e-03      -2.762661624939e-06 
   39       1.133998035476e+03       4.921199857321e-02       0.000000000000e+00       1.724530705561e+00       1.408171905561e-07       1.104335901356e-03      -2.605034062323e-06 
   40       1.150837017979e+03       5.328367242010e-02       0.000000000000e+00       1.662362999071e+00       1.406078843549e-07       1.080044564248e-03      -2.318707801250e-06 
   41       1.167775477623e+03       5.763641938986e-02       0.000000000000e+00       1.588333822669e+00       1.403310056064e-07       1.056327442025e-03      -1.953860656508e-06 
   42       1.184842717170e+03       6.228344296626e-02       0.000000000000e+00       1.503493668064e+00       1.400092302204e-07       1.033356100042e-03      -1.552592571383e-06 
   43       1.202079075784e+03       6.722430891845e-02       0.000000000000e+00       1.408891288555e+00       1.396680220437e-07       1.011306306694e-03      -1.163713415390e-06 
   44       1.219505164544e+03       7.245612074153e-02       0.000000000000e+00       1.305822726146e+00       1.392999035007e-07       9.901557806422e-04      -8.497773985218e-07 
   45       1.237126140397e+03       7.797437682026e-02       0.000000000000e+00       1.195439038138e+00       1.388768084659e-07       9.697646432946e-04      -6.722167569058e-07 
   46       1.254951077214e+03       8.377623364763e-02       0.000000000000e+00       1.077399122385e+00       1.384230374774e-07       9.502544958300e-04      -6.348697698874e-07 
   47       1.272975758265e+03       8.985793944285e-02       0.000000000000e+00       9.508361611740e-01       1.379669872166e-07       9.317320395958e-04      -7.180997344401e-07 
   48       1.291175054540e+03       9.621379548586e-02       0.000000000000e+00       8.147177536815e-01       1.375166747728e-07       9.141626575306e-04      -8.919069533151e-07 
   49       1.309501161105e+03       1.028360510564e-01       0.000000000000e+00       6.678355247652e-01       1.370535500993e-07       8.973462629883e-04      -1.114642121908e-06 
   50       1.327904694725e+03       1.097170289804e-01       0.000000000000e+00       5.089639479673e-01       1.365445774963e-07       8.810073109077e-04      -1.340185258219e-06 
   51       1.346408829651e+03       1.168564261846e-01       0.000000000000e+00       3.374117454702e-01       1.360038750606e-07       8.651703115515e-04      -1.546244514659e-06 
   52       1.365052236573e+03       1.242558131907e-01       0.000000000000e+00       1.526021975930e-01       1.354517109471e-07       8.498911492499e-04      -1.715112022262e-06 
   53       1.383867308638e+03       1.319165766174e-01       0.000000000000e+00      -4.608536061049e-02       1.348950926194e-07       8.351427013130e-04      -1.825849658464e-06 
   54       1.402879473621e+03       1.398399190886e-01       0.000000000000e+00      -2.593179675342e-01       1.343241279308e-07       8.208020883707e-04      -1.854014886482e-06 
   55       1.422106631401e+03       1.480266853563e-01       0.000000000000e+00      -4.875993929283e-01       1.337204867355e-07       8.067114722225e-04      -1.779340069854e-06 
   56       1.441558878490e+03       1.564767902920e-01       0.000000000000e+00      -7.305746620910e-01       1.330977940867e-07       7.929191834377e-04      -1.612834492896e-06 
   57       1.461237510289e+03       1.651896486367e-01       0.000000000000e+00      -9.875570137075e-01       1.324737566606e-07       7.795038794157e-04      -1.379154566947e-06 
   58       1.481134221719e+03       1.741643296243e-01       0.000000000000e+00      -1.257719125659e+00       1.318573616142e-07       7.665020005046e-04      -1.110122948476e-06 
   59       1.501230424272e+03       1.833995501200e-01       0.000000000000e+00      -1.540087280726e+00       1.312466387574e-07       7.539013556789e-04      -8.454043877113e-07 
   60       1.521496563071e+03       1.928936677581e-01       0.000000000000e+00      -1.833535532295e+00       1.306262184067e-07       7.416344294773e-04      -6.332055474875e-07 
   61       1.541903694789e+03       2.026446883941e-01       0.000000000000e+00      -2.137041235270e+00       1.299755022769e-07       7.296143583791e-04      -5.188684031512e-07 
   62       1.562462803274e+03       2.126503059396e-01       0.000000000000e+00      -2.450531862234e+00       1.293040362745e-07       7.178735602006e-04      -5.044153137163e-07 
   63       1.583193137001e+03       2.229078593326e-01       0.000000000000e+00      -2.774218776238e+00       1.286269971956e-07       7.064590418642e-04      -5.767636923395e-07 
   64       1.604110438838e+03       2.334143127313e-01       0.000000000000e+00      -3.108355048273e+00       1.279545757953e-07       6.953899199666e-04      -7.183143834222e-07 
   65       1.625226652128e+03       2.441662491064e-01       0.000000000000e+00      -3.453237915893e+00       1.272907429777e-07       6.846536881931e-04      -9.065415274729e-07 
   66       1.646549626773e+03       2.551598638330e-01       0.000000000000e+00      -3.809211241842e+00       1.266319122645e-07       6.742023389420e-04      -1.113568844873e-06 
   67       1.668082825322e+03       2.663909582831e-01       0.000000000000e+00      -4.176667972677e+00       1.259654952412e-07       6.639483391628e-04      -1.305732338548e-06 
   68       1.689828117387e+03       2.778546591302e-01       0.000000000000e+00      -4.555949311655e+00       1.252761447329e-07       6.537985099905e-04      -1.451212953900e-06 
   69       1.711795477407e+03       2.895445245434e-01       0.000000000000e+00      -4.947013017623e+00       1.245712041053e-07       6.437773873002e-04      -1.546696624237e-06 
   70       1.733994732936e+03       3.014532445414e-01       0.000000000000e+00      -5.349702002721e+00       1.238625983809e-07       6.339336175436e-04      -1.597958103462e-06 
   71       1.756432439091e+03       3.135728860724e-01       0.000000000000e+00      -5.763841491612e+00       1.231592698158e-07       6.243035421875e-04      -1.612611763497e-06 
   72       1.779111663626e+03       3.258948795920e-01       0.000000000000e+00      -6.189238838527e+00       1.224664887743e-07       6.149095345727e-04      -1.600262846531e-06 
   73       1.802031772002e+03       3.384100056393e-01       0.000000000000e+00      -6.625683344310e+00       1.217851119778e-07       6.057582762239e-04      -1.572663245292e-06 
   74       1.825188212457e+03       3.511083814150e-01       0.000000000000e+00      -7.072946073465e+00       1.211107866102e-07       5.968389726127e-04      -1.543871811314e-06 
   75       1.848572301074e+03       3.639794473577e-01       0.000000000000e+00      -7.530779671203e+00       1.204330987626e-07       5.881215083710e-04      -1.530419191229e-06 
   76       1.872174871751e+03       3.770127035608e-01       0.000000000000e+00      -7.998917399202e+00       1.197401795699e-07       5.795719798977e-04      -1.547485128435e-06 
   77       1.895998469619e+03       3.902001037283e-01       0.000000000000e+00      -8.477070444336e+00       1.190366349952e-07       5.712085860866e-04      -1.595827258483e-06 
   78       1.920047001000e+03       4.035340754098e-01       0.000000000000e+00      -8.964929784507e+00       1.183304040184e-07       5.630574770087e-04      -1.671603167678e-06 
   79       1.944321932283e+03       4.170068108109e-01       0.000000000000e+00      -9.462166730637e+00       1.176274234296e-07       5.551356620921e-04      -1.769988395325e-06 
   80       1.968822154250e+03       4.306102687459e-01       0.000000000000e+00      -9.968432727693e+00       1.169312263648e-07       5.474499914485e-04      -1.885105482245e-06 
   81       1.993543846399e+03       4.443361765917e-01       0.000000000000e+00      -1.048335915571e+01       1.162425135264e-07       5.399961046962e-04      -2.009951126734e-06 
   82       2.018480341266e+03       4.581760322402e-01       0.000000000000e+00      -1.100655713081e+01       1.155586963813e-07       5.327573472818e-04      -2.136321447959e-06 
   83       2.043621988752e+03       4.721211060522e-01       0.000000000000e+00      -1.153761730624e+01       1.148734116296e-07       5.257036543000e-04      -2.254735356805e-06 
   84       2.068959840798e+03       4.861617858177e-01       0.000000000000e+00      -1.207613486552e+01       1.141795782725e-07       5.188033236424e-04      -2.356415249966e-06 
   85       2.094497704470e+03       5.002854825924e-01       0.000000000000e+00      -1.262178969833e+01       1.134809455776e-07       5.120643141515e-04      -2.439976078756e-06 
   86       2.120241847560e+03       5.144783796602e-01       0.000000000000e+00      -1.317427921309e+01       1.127833766930e-07       5.055010623184e-04      -2.506248382729e-06 
   87       2.146197285464e+03       5.287260497038e-01       0.000000000000e+00      -1.373329454768e+01       1.120913729672e-07       4.991218772278e-04      -2.556383947772e-06 
   88       2.172367709717e+03       5.430134457153e-01       0.000000000000e+00      -1.429852079388e+01       1.114078292254e-07       4.929283442406e-04      -2.591878456908e-06 
   89       2.198755416522e+03       5.573248919083e-01       0.000000000000e+00      -1.486963722181e+01       1.107337739900e-07       4.869147115959e-04      -2.614594706010e-06 
   90       2.225361235283e+03       5.716440746286e-01       0.000000000000e+00      -1.544631750429e+01       1.100680942932e-07       4.810672599313e-04      -2.626786384414e-06 
   91       2.252184457133e+03       5.859540332657e-01       0.000000000000e+00      -1.602822994134e+01       1.094072447276e-07       4.753636547222e-04      -2.631122420440e-06 
   92       2.279222763468e+03       6.002371511638e-01       0.000000000000e+00      -1.661503768454e+01       1.087449403837e-07       4.697722816405e-04      -2.630711891819e-06 
   93       2.306473432365e+03       6.144764124360e-01       0.000000000000e+00      -1.720638699460e+01       1.080747456627e-07       4.642625103341e-04      -2.628439711118e-06 
   94       2.333937320643e+03       6.286594083712e-01       0.000000000000e+00      -1.780186950622e+01       1.073994838310e-07       4.588396719132e-04      -2.624744332321e-06 
   95       2.361615351355e+03       6.427749195905e-01       0.000000000000e+00      -1.840105467639e+01       1.067240252546e-07       4.535166811707e-04      -2.619387619244e-06 
   96       2.389507236051e+03       6.568117120114e-01       0.000000000000e+00      -1.900350130494e+01       1.060524915636e-07       4.483035059895e-04      -2.612099465824e-06 
   97       2.417611420854e+03       6.707585451362e-01       0.000000000000e+00      -1.960875759467e+01       1.053881235095e-07       4.432068873252e-04      -2.602575909530e-06 
   98       2.445925032532e+03       6.846041803399e-01       0.000000000000e+00      -2.021636121154e+01       1.047331413180e-07       4.382300517499e-04      -2.590477202050e-06 
   99       2.474443824567e+03       6.983373891585e-01       0.000000000000e+00      -2.082583934480e+01       1.040885973784e-07       4.333724165565e-04      -2.575425837264e-06 
  100       2.503162123232e+03       7.119469615767e-01       0.000000000000e+00      -2.143670876714e+01       1.034542211069e-07       4.286292874224e-04      -2.557004536505e-06 
  101       2.532072773660e+03       7.254217143167e-01       0.000000000000e+00      -2.204847589489e+01       1.028282558248e-07       4.239915486355e-04      -2.534754191097e-06 
  102       2.561167085916e+03       7.387504991257e-01       0.000000000000e+00      -2.266063684810e+01       1.022072874886e-07       4.194453458784e-04      -2.508171762184e-06 
  103       2.590434781074e+03       7.519222110643e-01       0.000000000000e+00      -2.327267751077e+01       1.015860651133e-07       4.149717615751e-04      -2.476708137835e-06 
  104       2.619866170967e+03       7.649255216889e-01       0.000000000000e+00      -2.388407934619e+01       1.009594455670e-07       4.105528705800e-04      -2.439953223094e-06 
  105       2.649459148974e+03       7.777480196989e-01       0.000000000000e+00      -2.449433760830e+01       1.003292579849e-07       4.061920451611e-04      -2.398238963185e-06 
  106       2.679213047446e+03       7.903769691147e-01       0.000000000000e+00      -2.510294571404e+01       9.969892377961e-08       4.018971323951e-04      -2.352154043405e-06 
  107       2.709126459326e+03       8.027995792180e-01       0.000000000000e+00      -2.570938982970e+01       9.907141410635e-08       3.976742863873e-04      -2.302371140301e-06 
