# Matter power spectrum P(k) at redshift z=0
# for k=1.02929e-05 to 163.123 h/Mpc,
# number of wavenumbers equal to 624
#    1:k (h/Mpc)              2:P (Mpc/h)^3        
       1.029287750344e-05       4.818498857990e+01 
       2.306408629449e-05       1.054077953827e+02 
       3.587926851773e-05       1.618489713067e+02 
       4.877231764121e-05       2.180474202743e+02 
       6.177767675510e-05       2.743265300969e+02 
       7.493064049969e-05       3.309394229327e+02 
       8.826766647070e-05       3.881101034665e+02 
       1.018267001798e-04       4.460505134233e+02 
       1.156475176793e-04       5.049696280405e+02 
       1.297720899936e-04       5.650792658762e+02 
       1.442449735085e-04       6.265982970818e+02 
       1.591137304203e-04       6.897560746462e+02 
       1.744293831923e-04       7.547957910601e+02 
       1.902469066377e-04       8.219773451208e+02 
       2.066257606630e-04       8.915803871817e+02 
       2.236304657464e-04       9.639073327981e+02 
       2.413312217319e-04       1.039286589454e+03 
       2.598045683113e-04       1.118075482185e+03 
       2.791340823782e-04       1.200663399065e+03 
       2.994111029921e-04       1.287474754738e+03 
       3.207354686251e-04       1.378971395303e+03 
       3.432162433231e-04       1.475654667289e+03 
       3.669723980279e-04       1.578066394298e+03 
       3.921334003248e-04       1.686788119119e+03 
       4.188396502575e-04       1.802439102698e+03 
       4.472426819870e-04       1.925670853919e+03 
       4.775050320361e-04       2.057158626463e+03 
       5.097996567796e-04       2.197589160055e+03 
       5.443087681852e-04       2.347644158644e+03 
       5.812219526636e-04       2.507979939302e+03 
       6.207334498025e-04       2.679204538900e+03 
       6.630385030907e-04       2.861854577439e+03 
       7.083287599620e-04       3.056376575310e+03 
       7.567867966029e-04       3.263114622384e+03 
       8.085799700491e-04       3.482311303023e+03 
       8.638539422511e-04       3.714120198208e+03 
       9.227263530985e-04       3.958625186972e+03 
       9.852812088663e-04       4.215859344473e+03 
       1.051564566164e-03       4.485802472792e+03 
       1.121582007779e-03       4.768351185841e+03 
       1.195298226958e-03       5.063255039341e+03 
       1.272638789155e-03       5.370043011192e+03 
       1.353493875101e-03       5.687950561962e+03 
       1.437723582752e-03       6.015983592166e+03 
       1.525164222992e-03       6.352991872737e+03 
       1.615635004368e-03       6.697774946424e+03 
       1.708944557460e-03       7.049212856320e+03 
       1.804896870773e-03       7.406311285686e+03 
       1.903296360590e-03       7.768154251053e+03 
       2.003951944269e-03       8.133824118235e+03 
       2.106680107721e-03       8.502355156726e+03 
       2.211307043597e-03       8.872772964151e+03 
       2.317669987009e-03       9.244177432265e+03 
       2.425617896367e-03       9.615816980603e+03 
       2.535011626577e-03       9.987080858486e+03 
       2.645723728360e-03       1.035743177353e+04 
       2.757637987539e-03       1.072633908819e+04 
       2.870648796326e-03       1.109327353264e+04 
       2.984660427864e-03       1.145775238415e+04 
       3.099586267052e-03       1.181939331332e+04 
       3.215348035559e-03       1.217790549918e+04 
       3.331875036941e-03       1.253305099470e+04 
       3.449103438556e-03       1.288458121671e+04 
       3.566975600163e-03       1.323224593519e+04 
       3.685439454157e-03       1.357582236351e+04 
       3.804447938978e-03       1.391515638323e+04 
       3.923958484890e-03       1.425014484647e+04 
       4.043932549896e-03       1.458070409901e+04 
       4.164335202629e-03       1.490672610203e+04 
       4.285134748648e-03       1.522810223480e+04 
       4.406302396369e-03       1.554474930447e+04 
       4.527811958903e-03       1.585662313947e+04 
       4.649639588215e-03       1.616371345839e+04 
       4.771763538247e-03       1.646600981625e+04 
       4.894163953891e-03       1.676347375096e+04 
       5.016822682975e-03       1.705606656480e+04 
       5.139723108720e-03       1.734377692375e+04 
       5.262850000337e-03       1.762661974554e+04 
       5.386189379735e-03       1.790463548450e+04 
       5.509728402495e-03       1.817782690081e+04 
       5.633455251495e-03       1.844620854880e+04 
       5.757359041740e-03       1.870976698717e+04 
       5.881429735139e-03       1.896856040869e+04 
       6.005658064095e-03       1.922261060361e+04 
       6.130035462923e-03       1.947196982218e+04 
       6.254554006220e-03       1.971666368615e+04 
       6.379206353425e-03       1.995671612061e+04 
       6.503985698871e-03       2.019214712278e+04 
       6.628885726747e-03       2.042301103025e+04 
       6.753900570425e-03       2.064936369036e+04 
       6.879024775696e-03       2.087124347507e+04 
       7.004253267489e-03       2.108868513922e+04 
       7.129581319714e-03       2.130172262967e+04 
       7.255004527899e-03       2.151038452423e+04 
       7.380518784339e-03       2.171473213997e+04 
       7.506120255487e-03       2.191482879937e+04 
       7.631805361386e-03       2.211070852849e+04 
       7.757570756903e-03       2.230240597452e+04 
       7.883413314624e-03       2.248995897672e+04 
       8.009330109218e-03       2.267342466458e+04 
       8.135318403144e-03       2.285283083519e+04 
       8.261375633566e-03       2.302825553994e+04 
       8.387499400368e-03       2.319974201434e+04 
       8.513687455156e-03       2.336731691161e+04 
       8.639937691168e-03       2.353101206156e+04 
       8.766248133994e-03       2.369089089353e+04 
       8.892616933050e-03       2.384699585803e+04 
       9.019042353725e-03       2.399937825211e+04 
       9.145522770143e-03       2.414807328124e+04 
       9.272056658494e-03       2.429311723424e+04 
       9.398642590880e-03       2.443454035683e+04 
       9.525279229626e-03       2.457240418375e+04 
       9.651965322028e-03       2.470675606966e+04 
       9.778699695493e-03       2.483761681612e+04 
       9.905481253042e-03       2.496504766578e+04 
       1.003230896914e-02       2.508905968755e+04 
       1.015918188586e-02       2.520971122475e+04 
       1.028609910925e-02       2.532703379889e+04 
       1.041305980609e-02       2.544108156928e+04 
       1.054006320074e-02       2.555187570788e+04 
       1.066710857234e-02       2.565946006666e+04 
       1.079419525209e-02       2.576387735438e+04 
       1.092132262083e-02       2.586515286508e+04 
       1.104849010675e-02       2.596334507088e+04 
       1.117569718319e-02       2.605846941546e+04 
       1.130294336672e-02       2.615058228846e+04 
       1.143022821528e-02       2.623969630117e+04 
       1.155755132645e-02       2.632586619658e+04 
       1.168491233583e-02       2.640911649007e+04 
       1.181231091561e-02       2.648948500030e+04 
       1.193974677314e-02       2.656702084773e+04 
       1.206721964965e-02       2.664174252713e+04 
       1.219472931907e-02       2.671367879617e+04 
       1.232227558690e-02       2.678287550990e+04 
       1.244985828920e-02       2.684936810998e+04 
       1.257747729160e-02       2.691318493093e+04 
       1.270513248843e-02       2.697435761147e+04 
       1.283282380188e-02       2.703292446532e+04 
       1.296055118127e-02       2.708891390480e+04 
       1.308831460228e-02       2.714235950211e+04 
       1.321611406636e-02       2.719329726264e+04 
       1.334394960010e-02       2.724176824206e+04 
       1.347182125465e-02       2.728778673743e+04 
       1.359972910526e-02       2.733138076315e+04 
       1.372767325078e-02       2.737259277077e+04 
       1.385565381324e-02       2.741145680542e+04 
       1.398367093749e-02       2.744799982401e+04 
       1.411172479078e-02       2.748225372706e+04 
       1.423981556252e-02       2.751423092335e+04 
       1.436794346395e-02       2.754397156620e+04 
       1.449610872792e-02       2.757150919207e+04 
       1.461807752384e-02       2.759569635716e+04 
       1.462431160861e-02       2.759687387719e+04 
       1.475255238142e-02       2.762008331987e+04 
       1.488083134272e-02       2.764118378158e+04 
       1.500914880979e-02       2.766016368244e+04 
       1.513750512064e-02       2.767708882616e+04 
       1.526590063395e-02       2.769197277612e+04 
       1.539433572899e-02       2.770484753593e+04 
       1.552281080562e-02       2.771574505279e+04 
       1.565132628421e-02       2.772468846120e+04 
       1.577988260566e-02       2.773169354256e+04 
       1.590848023144e-02       2.773681500997e+04 
       1.603711964361e-02       2.774003307320e+04 
       1.616580134488e-02       2.774144698497e+04 
       1.629452585871e-02       2.774102932878e+04 
       1.642329372939e-02       2.773881260085e+04 
       1.655210552215e-02       2.773482456322e+04 
       1.668096182330e-02       2.772908940932e+04 
       1.680986324040e-02       2.772162815837e+04 
       1.693881040241e-02       2.771244741536e+04 
       1.706780395988e-02       2.770160044565e+04 
       1.719684458516e-02       2.768910819402e+04 
       1.732593297262e-02       2.767498688617e+04 
       1.745506983886e-02       2.765927205109e+04 
       1.758425592302e-02       2.764197283200e+04 
       1.771349198700e-02       2.762312067743e+04 
       1.784277881576e-02       2.760273776995e+04 
       1.797211721765e-02       2.758085092023e+04 
       1.810150802469e-02       2.755750575923e+04 
       1.823095209294e-02       2.753265590230e+04 
       1.836045030283e-02       2.750638707752e+04 
       1.849000355954e-02       2.747868194928e+04 
       1.861961279341e-02       2.744960074279e+04 
       1.874927896029e-02       2.741914884308e+04 
       1.887900304201e-02       2.738736205576e+04 
       1.900878604681e-02       2.735422017712e+04 
       1.913862900977e-02       2.731977970309e+04 
       1.926853299333e-02       2.728405998839e+04 
       1.939849908772e-02       2.724707496770e+04 
       1.952852841155e-02       2.720883229003e+04 
       1.965862211226e-02       2.716939207082e+04 
       1.978878136672e-02       2.712874365234e+04 
       1.991900738180e-02       2.708691956326e+04 
       2.004930139491e-02       2.704391218553e+04 
       2.017966467467e-02       2.699978875284e+04 
       2.031009852148e-02       2.695454685784e+04 
       2.044060426822e-02       2.690822856873e+04 
       2.057118328089e-02       2.686075729637e+04 
       2.070183695931e-02       2.681226901423e+04 
       2.083256673785e-02       2.676277592143e+04 
       2.096337408614e-02       2.671223878271e+04 
       2.109426050988e-02       2.666068841388e+04 
       2.122522755157e-02       2.660816829423e+04 
       2.135627679135e-02       2.655467096159e+04 
       2.148740984787e-02       2.650023601118e+04 
       2.161862837909e-02       2.644490231875e+04 
       2.174993408322e-02       2.638860381385e+04 
       2.188132869963e-02       2.633147745711e+04 
       2.201281400979e-02       2.627344725538e+04 
       2.214439183824e-02       2.621461829901e+04 
       2.227606405363e-02       2.615490605464e+04 
       2.240783256973e-02       2.609435876174e+04 
       2.253969934653e-02       2.603308255211e+04 
       2.267166639132e-02       2.597098207344e+04 
       2.280373575984e-02       2.590808993646e+04 
       2.293590955749e-02       2.584445345935e+04 
       2.306818994048e-02       2.578011058374e+04 
       2.320057911715e-02       2.571508544828e+04 
       2.333307934921e-02       2.564931072613e+04 
       2.346569295310e-02       2.558287990493e+04 
       2.359842230137e-02       2.551577435671e+04 
       2.373126982408e-02       2.544802217348e+04 
       2.386423801028e-02       2.537962799958e+04 
       2.399732940951e-02       2.531061455940e+04 
       2.413054663337e-02       2.524098840978e+04 
       2.426389235713e-02       2.517079252165e+04 
       2.439736932139e-02       2.510011655238e+04 
       2.453098033379e-02       2.502871923197e+04 
       2.466472827080e-02       2.495680206216e+04 
       2.479861607953e-02       2.488440020767e+04 
       2.493264677964e-02       2.481146802772e+04 
       2.506682346529e-02       2.473804229922e+04 
       2.520114930717e-02       2.466412640962e+04 
       2.533562755456e-02       2.458968659663e+04 
       2.547026153752e-02       2.451485887991e+04 
       2.560505466908e-02       2.443959114817e+04 
       2.574001044762e-02       2.436380153542e+04 
       2.587513245918e-02       2.428767379061e+04 
       2.601042437997e-02       2.421109270119e+04 
       2.614588997891e-02       2.413410522582e+04 
       2.628153312030e-02       2.405677657609e+04 
       2.641735776653e-02       2.397905141026e+04 
       2.655336798091e-02       2.390095797234e+04 
       2.668956793064e-02       2.382252830294e+04 
       2.682596188982e-02       2.374372775528e+04 
       2.696255424261e-02       2.366466012410e+04 
       2.709934948649e-02       2.358530875307e+04 
       2.723635223565e-02       2.350553989216e+04 
       2.737356722452e-02       2.342558455097e+04 
       2.751099931135e-02       2.334528029673e+04 
       2.764865348205e-02       2.326476428101e+04 
       2.778653485409e-02       2.318397947801e+04 
       2.792464868051e-02       2.310293822850e+04 
       2.806300035424e-02       2.302174479882e+04 
       2.820159541239e-02       2.294017149288e+04 
       2.834043954088e-02       2.285847201381e+04 
       2.847953857912e-02       2.277652981506e+04 
       2.861889852494e-02       2.269438578960e+04 
       2.875852553971e-02       2.261215511212e+04 
       2.889842595368e-02       2.252964479049e+04 
       2.903860627145e-02       2.244702224798e+04 
       2.917907317781e-02       2.236418839240e+04 
       2.931983354364e-02       2.228126590819e+04 
       2.946089443225e-02       2.219818134702e+04 
       2.960226310580e-02       2.211496388009e+04 
       2.974394703211e-02       2.203160106432e+04 
       2.988595389172e-02       2.194810694920e+04 
       3.002829158525e-02       2.186457281745e+04 
       3.017096824107e-02       2.178087999198e+04 
       3.031399222333e-02       2.169714941873e+04 
       3.045737214030e-02       2.161327255260e+04 
       3.060111685314e-02       2.152934329833e+04 
       3.074523548500e-02       2.144537977287e+04 
       3.088973743054e-02       2.136126029668e+04 
       3.103463236595e-02       2.127721837235e+04 
       3.117993025933e-02       2.119306105005e+04 
       3.132564138160e-02       2.110871926785e+04 
       3.147177631795e-02       2.102464823110e+04 
       3.161834597977e-02       2.094032038997e+04 
       3.176536161719e-02       2.085606506713e+04 
       3.191283483216e-02       2.077169092338e+04 
       3.206077759230e-02       2.068731611479e+04 
       3.220920224525e-02       2.060297439011e+04 
       3.235812153389e-02       2.051868119174e+04 
       3.250754861219e-02       2.043432055810e+04 
       3.265749706196e-02       2.034995806263e+04 
       3.280798091042e-02       2.026562506980e+04 
       3.295901464863e-02       2.018132863013e+04 
       3.311061325093e-02       2.009705569896e+04 
       3.326279219542e-02       2.001277571852e+04 
       3.341556748546e-02       1.992855000430e+04 
       3.356895567236e-02       1.984432799457e+04 
       3.372297387933e-02       1.976012315836e+04 
       3.387763982669e-02       1.967609935710e+04 
       3.403297185850e-02       1.959198779745e+04 
       3.418898897072e-02       1.950798513804e+04 
       3.434571084085e-02       1.942395886848e+04 
       3.450315785945e-02       1.934004161938e+04 
       3.466135116331e-02       1.925618568152e+04 
       3.482031267065e-02       1.917238603319e+04 
       3.498006511844e-02       1.908858995228e+04 
       3.514063210185e-02       1.900487180225e+04 
       3.530203811622e-02       1.892128232538e+04 
       3.546430860149e-02       1.883773269354e+04 
       3.562746998951e-02       1.875421205886e+04 
       3.579154975421e-02       1.867079541324e+04 
       3.595657646508e-02       1.858739732276e+04 
       3.612257984399e-02       1.850415234729e+04 
       3.628959082581e-02       1.842091419210e+04 
       3.645764162301e-02       1.833777256802e+04 
       3.662676579455e-02       1.825464633448e+04 
       3.679699831953e-02       1.817167547754e+04 
       3.696837567582e-02       1.808873386101e+04 
       3.714093592425e-02       1.800586856240e+04 
       3.731471879868e-02       1.792306410781e+04 
       3.748976580259e-02       1.784033573793e+04 
       3.766612031264e-02       1.775767087254e+04 
       3.784382768985e-02       1.767507635836e+04 
       3.802293539917e-02       1.759255869590e+04 
       3.820349313800e-02       1.751004990138e+04 
       3.838555297470e-02       1.742764782342e+04 
       3.856916949783e-02       1.734528591396e+04 
       3.875439997730e-02       1.726299751842e+04 
       3.894130453841e-02       1.718073027939e+04 
       3.912994635016e-02       1.709856488824e+04 
       3.932039182918e-02       1.701638711180e+04 
       3.951271086085e-02       1.693424327724e+04 
       3.970697703940e-02       1.685216046691e+04 
       3.990326792886e-02       1.677014023607e+04 
       4.010166534719e-02       1.668810189440e+04 
       4.030225567599e-02       1.660607423516e+04 
       4.050513019852e-02       1.652404499210e+04 
       4.071038546933e-02       1.644208350514e+04 
       4.091812371890e-02       1.636008390180e+04 
       4.112845329736e-02       1.627806252788e+04 
       4.134148916190e-02       1.619602051202e+04 
       4.155735341297e-02       1.611401064566e+04 
       4.177617588532e-02       1.603190584593e+04 
       4.199809480037e-02       1.594978359880e+04 
       4.222325748807e-02       1.586757698993e+04 
       4.245182118662e-02       1.578533529767e+04 
       4.268395393073e-02       1.570296218093e+04 
       4.291983553984e-02       1.562056259877e+04 
       4.315965872020e-02       1.553801670928e+04 
       4.340363029640e-02       1.545533511140e+04 
       4.365197259096e-02       1.537256332550e+04 
       4.390492497319e-02       1.528958593511e+04 
       4.416274560263e-02       1.520648382046e+04 
       4.442571339647e-02       1.512316137560e+04 
       4.469413025563e-02       1.503963248550e+04 
       4.496832359054e-02       1.495589461478e+04 
       4.524864919527e-02       1.487186031390e+04 
       4.553549452798e-02       1.478753262535e+04 
       4.582928246661e-02       1.470290985993e+04 
       4.613047562299e-02       1.461793172924e+04 
       4.643958131505e-02       1.453256550989e+04 
       4.675715731773e-02       1.444679569976e+04 
       4.708381853915e-02       1.436056666272e+04 
       4.742024480033e-02       1.427382430894e+04 
       4.776718993704e-02       1.418654773961e+04 
       4.812549249221e-02       1.409864250662e+04 
       4.849608833057e-02       1.401010426997e+04 
       4.888002558651e-02       1.392080185641e+04 
       4.927848245749e-02       1.383073707669e+04 
       4.969278848291e-02       1.373973054171e+04 
       5.012445011220e-02       1.364772138292e+04 
       5.057518157354e-02       1.355464334192e+04 
       5.104694232019e-02       1.346034043810e+04 
       5.154198266775e-02       1.336462732744e+04 
       5.206289966066e-02       1.326735341942e+04 
       5.261270573457e-02       1.316832566167e+04 
       5.319491338389e-02       1.306724942403e+04 
       5.381363979313e-02       1.296385791275e+04 
       5.447373619548e-02       1.285774136115e+04 
       5.518094743786e-02       1.274841513310e+04 
       5.594210751629e-02       1.263531782086e+04 
       5.676537597128e-02       1.251759908572e+04 
       5.766051653070e-02       1.239430199757e+04 
       5.863921045176e-02       1.226399804465e+04 
       5.971537760219e-02       1.212501058541e+04 
