# Rescaled matter transfer functions [-T_i(k)/k^2] for adiabatic (AD) mode (normalized to initial curvature=1) at redshift z=0
# for k=1.02415e-05 to 159.711 h/Mpc,
# number of wavenumbers equal to 622
# T_i   stands for (delta rho_i/rho_i)(k,z) with above normalization 
# The rescaling factor [-1/k^2] with k in 1/Mpc is here to match the CMBFAST/CAMB output convention
#
#
#    1:k (h/Mpc)              2:-T_cdm/k2              3:-T_b/k2                4:-T_g/k2                5:-T_ur/k2               6:-T_ncdm/k2             7:-T_tot/k2          
       1.024149113753e-05       2.033008641373e+07       2.064808214723e+07       2.751659097657e+07       2.751611252049e+07       2.064330126601e+07       5.900527407448e+06 
       2.305429721528e-05       2.033068827433e+07       2.064752005031e+07       2.745821603408e+07       2.745579581166e+07       2.064258166587e+07       5.900521210777e+06 
       3.591128286875e-05       2.033175494586e+07       2.064652268799e+07       2.735475935427e+07       2.734890539339e+07       2.064130443376e+07       5.900510242256e+06 
       4.884667386228e-05       2.033329108606e+07       2.064508325686e+07       2.720577270094e+07       2.719499111548e+07       2.063946031485e+07       5.900494611970e+06 
       6.189525260485e-05       2.033530452727e+07       2.064319182980e+07       2.701054265067e+07       2.699333484244e+07       2.063703560839e+07       5.900474489064e+06 
       7.509266503414e-05       2.033780541725e+07       2.064083420723e+07       2.676809355454e+07       2.674295459498e+07       2.063401095202e+07       5.900449913647e+06 
       8.847573716794e-05       2.034080641114e+07       2.063799214672e+07       2.647719425160e+07       2.644261234077e+07       2.063036146016e+07       5.900420981307e+06 
       1.020828054938e-04       2.034432278554e+07       2.063464340296e+07       2.613636744850e+07       2.609082438004e+07       2.062605664172e+07       5.900387827880e+06 
       1.159540653999e-04       2.034837281214e+07       2.063076195520e+07       2.574390118384e+07       2.568587628047e+07       2.062106047091e+07       5.900350786730e+06 
       1.301319418838e-04       2.035297614968e+07       2.062631646536e+07       2.529786670513e+07       2.522584163584e+07       2.061532965673e+07       5.900310013957e+06 
       1.446614867835e-04       2.035815490010e+07       2.062127123139e+07       2.479614406905e+07       2.470861280089e+07       2.060881435915e+07       5.900265875293e+06 
       1.595908067235e-04       2.036393267012e+07       2.061558545030e+07       2.423646043566e+07       2.413194115630e+07       2.060145717676e+07       5.900218811949e+06 
       1.749715258053e-04       2.037033399617e+07       2.060921290862e+07       2.361643821800e+07       2.349349360608e+07       2.059319249531e+07       5.900169351165e+06 
       1.908592867315e-04       2.037738322076e+07       2.060210141995e+07       2.293366750017e+07       2.279092941873e+07       2.058394553001e+07       5.900118040075e+06 
       2.073142934423e-04       2.038510446934e+07       2.059419363024e+07       2.218580331220e+07       2.202200552086e+07       2.057363266143e+07       5.900065748924e+06 
       2.244018973430e-04       2.039351860897e+07       2.058542532527e+07       2.137068978078e+07       2.118471218953e+07       2.056215918224e+07       5.900013229322e+06 
       2.421932276502e-04       2.040264191031e+07       2.057572604410e+07       2.048653055035e+07       2.027745406285e+07       2.054941926186e+07       5.899961291301e+06 
       2.607658640845e-04       2.041248509040e+07       2.056502087812e+07       1.953210390019e+07       1.929928399116e+07       2.053529697052e+07       5.899911231054e+06 
       2.802045468237e-04       2.042304677118e+07       2.055322772905e+07       1.850704626084e+07       1.825019189174e+07       2.051966267649e+07       5.899863850620e+06 
       3.006019140024e-04       2.043431166041e+07       2.054026062880e+07       1.741218352972e+07       1.713147106352e+07       2.050237529260e+07       5.899820028054e+06 
       3.220592507443e-04       2.044624441694e+07       2.052603028037e+07       1.624996973613e+07       1.594615626825e+07       2.048328168746e+07       5.899780274199e+06 
       3.446872253504e-04       2.045878187105e+07       2.051044494580e+07       1.502496210669e+07       1.469953671418e+07       2.046221617138e+07       5.899744030841e+06 
       3.686065774835e-04       2.047182806359e+07       2.049341609024e+07       1.374440094903e+07       1.339973793350e+07       2.043900465928e+07       5.899709931014e+06 
       3.939487097266e-04       2.048524251000e+07       2.047485961953e+07       1.241880949438e+07       1.205832901482e+07       2.041346422815e+07       5.899674197967e+06 
       4.208561177180e-04       2.049883153222e+07       2.045470203361e+07       1.106257920712e+07       1.069090809596e+07       2.038540741934e+07       5.899629773825e+06 
       4.494825756360e-04       2.051233885549e+07       2.043288722800e+07       9.694466737909e+06       9.317560946245e+06       2.035464713824e+07       5.899564800505e+06 
       4.799929742747e-04       2.052543514387e+07       2.040938211538e+07       8.337839042995e+06       7.963040126855e+06       2.032100033160e+07       5.899459873056e+06 
       5.125626905946e-04       2.053771658430e+07       2.038418889624e+07       7.020489672857e+06       6.656469352712e+06       2.028429838431e+07       5.899286334474e+06 
       5.473763541476e-04       2.054870067265e+07       2.035734836952e+07       5.773780016285e+06       5.430300630166e+06       2.024438890601e+07       5.899001456614e+06 
       5.846258725083e-04       2.055784166798e+07       2.032895218795e+07       4.630847266363e+06       4.318286712456e+06       2.020114687125e+07       5.898546182582e+06 
       6.245075916717e-04       2.056455149296e+07       2.029914374479e+07       3.623684391869e+06       3.352253741629e+06       2.015447533843e+07       5.897840851266e+06 
       6.672185058676e-04       2.056824180043e+07       2.026811850260e+07       2.779061180874e+06       2.557707952113e+06       2.010430667838e+07       5.896783619302e+06 
       7.129515009135e-04       2.056838083182e+07       2.023611385456e+07       2.113632047542e+06       1.948674481082e+06       2.005059502080e+07       5.895251192595e+06 
       7.618897186920e-04       2.056456467727e+07       2.020339099601e+07       1.629079933713e+06       1.522748554734e+06       1.999330269186e+07       5.893105005092e+06 
       8.142002627750e-04       2.055658778640e+07       2.017020472523e+07       1.308745969362e+06       1.257949559378e+06       1.993237687098e+07       5.890203604403e+06 
       8.700276112467e-04       2.054449614176e+07       2.013676648518e+07       1.117585106824e+06       1.113349600177e+06       1.986772202464e+07       5.886422558663e+06 
       9.294872357236e-04       2.052859875711e+07       2.010320668646e+07       1.007057625417e+06       1.035111747646e+06       1.979917392954e+07       5.881679608551e+06 
       9.926600109711e-04       2.050941516129e+07       2.006954424829e+07       9.253000478036e+05       9.681074719308e+05       1.972648283793e+07       5.875958338680e+06 
       1.059588003931e-03       2.048755912506e+07       2.003567855210e+07       8.305891997788e+05       8.706956453641e+05       1.964932015285e+07       5.869321643060e+06 
       1.130272134230e-03       2.046357709473e+07       2.000140642981e+07       7.034521842536e+05       7.273945137709e+05       1.956730992675e+07       5.861902649452e+06 
       1.204672004429e-03       2.043779823295e+07       1.996646664044e+07       5.514472064434e+05       5.529322960184e+05       1.948008656825e+07       5.853868611243e+06 
       1.282707939684e-03       2.041026030783e+07       1.993059934619e+07       4.025028065304e+05       3.834767920165e+05       1.938736469514e+07       5.845364168026e+06 
       1.364265006316e-03       2.038070933901e+07       1.989355073062e+07       2.880865767678e+05       2.569742867670e+05       1.928895527897e+07       5.836442336725e+06 
       1.449198554954e-03       2.034886905369e+07       1.985522345401e+07       2.242891139269e+05       1.919551213042e+05       1.918490407011e+07       5.827073133477e+06 
       1.537340699868e-03       2.031456446214e+07       1.981559854676e+07       2.020452489772e+05       1.772689780779e+05       1.907541806802e+07       5.817151203776e+06 
       1.628507118614e-03       2.027781898001e+07       1.977467888538e+07       1.936198169774e+05       1.801994012959e+05       1.896080404584e+07       5.806560089620e+06 
       1.722503623326e-03       2.023886299448e+07       1.973247779120e+07       1.717811341717e+05       1.684430955505e+05       1.884144190279e+07       5.795255523392e+06 
       1.819132085392e-03       2.019800122250e+07       1.968899889444e+07       1.282150037361e+05       1.307911596052e+05       1.871774936526e+07       5.783297594122e+06 
       1.918195450921e-03       2.015545861974e+07       1.964423850753e+07       7.720100380023e+04       8.130061898620e+04       1.859016761537e+07       5.770814324485e+06 
       2.019501732573e-03       2.011131114960e+07       1.959820199519e+07       4.166901053149e+04       4.424668395736e+04       1.845916034815e+07       5.757921494840e+06 
       2.122866982973e-03       2.006553810793e+07       1.955091682387e+07       3.323642039091e+04       3.275966762701e+04       1.832521065616e+07       5.744658766533e+06 
       2.228117337509e-03       2.001813999221e+07       1.950243549670e+07       4.306451548516e+04       3.913993729943e+04       1.818880904812e+07       5.730991570996e+06 
       2.335090260990e-03       1.996921743867e+07       1.945282597109e+07       5.086685420144e+04       4.414443840077e+04       1.805043175831e+07       5.716872980371e+06 
       2.443635150190e-03       1.991894699380e+07       1.940215310541e+07       4.304692606132e+04       3.526350342469e+04       1.791051282563e+07       5.702307611184e+06 
       2.553613441346e-03       1.986750288460e+07       1.935047824838e+07       2.314123311766e+04       1.656027064082e+04       1.776943728926e+07       5.687365453898e+06 
       2.664898356501e-03       1.981498860201e+07       1.929785913261e+07       5.790605222562e+03       1.880972392799e+03       1.762753778348e+07       5.672133772474e+06 
       2.777374401519e-03       1.976144675735e+07       1.924435930851e+07       1.489569305675e+03      -1.858899255759e+02       1.748510335842e+07       5.656659796139e+06 
       2.890936706291e-03       1.970691590719e+07       1.919004740541e+07       7.452012489568e+03       5.970046837821e+03       1.734238061297e+07       5.640936300731e+06 
       3.005490276653e-03       1.965147317902e+07       1.913499031447e+07       1.247088894876e+04       9.261574808948e+03       1.719957100123e+07       5.624939340731e+06 
       3.120949209411e-03       1.959523754961e+07       1.907925828064e+07       9.090921890285e+03       4.347184002793e+03       1.705684037307e+07       5.608679193562e+06 
       3.237235906849e-03       1.953831184114e+07       1.902290999203e+07      -5.341317322235e-01       2.943177104861e+03       1.691445083598e+07       5.592205115374e+06 
       3.354280315387e-03       1.948076042793e+07       1.896600160565e+07      -6.872923981626e+03       1.500678551662e+04       1.677246661988e+07       5.575571938383e+06 
       3.472019204030e-03       1.942261870577e+07       1.890858798487e+07      -7.644033540038e+03       3.203739035377e+04       1.663093929217e+07       5.558802275308e+06 
       3.590395491662e-03       1.936392608635e+07       1.885072120665e+07      -5.663595237272e+03       4.158537186159e+04       1.649004176214e+07       5.541886168573e+06 
       3.709357627511e-03       1.930474632111e+07       1.879245174987e+07      -6.146926746777e+03       3.997237233067e+04       1.634992338438e+07       5.524814298268e+06 
       3.828859025796e-03       1.924515315259e+07       1.873382547496e+07      -9.575234767729e+03       3.333790007014e+04       1.621071008297e+07       5.507604767858e+06 
       3.948857553430e-03       1.918519868067e+07       1.867487824360e+07      -1.162133934179e+04       2.982557881403e+04       1.607250016226e+07       5.490294234963e+06 
       4.069315068234e-03       1.912491860763e+07       1.861564926450e+07      -8.980060815717e+03       3.188059580038e+04       1.593537983135e+07       5.472912110827e+06 
       4.190197004346e-03       1.906432991259e+07       1.855616539807e+07      -3.645365051150e+03       3.545997339303e+04       1.579941087417e+07       5.455458704913e+06 
       4.311472001086e-03       1.900347122509e+07       1.849646274502e+07      -6.197154848738e+02       3.554517714509e+04       1.566465168560e+07       5.437924757229e+06 
       4.433111571437e-03       1.894238600905e+07       1.843656892962e+07      -2.150540687231e+03       3.155489530998e+04       1.553114307913e+07       5.420311536897e+06 
       4.555089806345e-03       1.888110934669e+07       1.837650398542e+07      -5.472121962353e+03       2.725103955176e+04       1.539890999261e+07       5.402638646100e+06 
       4.677383111206e-03       1.881967219474e+07       1.831629563408e+07      -2.480925136013e+04      -2.519425040851e+04       1.526797616708e+07       5.384929425001e+06 
       4.799969971177e-03       1.875808611653e+07       1.825596134695e+07      -2.348156956079e+04      -2.384595256649e+04       1.513834668543e+07       5.367195139344e+06 
       4.922830742168e-03       1.869637820684e+07       1.819552998995e+07      -2.225106910254e+04      -2.259634599860e+04       1.501003247359e+07       5.349429036724e+06 
       5.045947464701e-03       1.863456445779e+07       1.813501104110e+07      -2.110921643303e+04      -2.143675854023e+04       1.488301732877e+07       5.331623682705e+06 
       5.169303698065e-03       1.857267682728e+07       1.807442627544e+07      -2.004778197850e+04      -2.035883686392e+04       1.475729064556e+07       5.313790506607e+06 
       5.292884372473e-03       1.851073049716e+07       1.801378827656e+07      -1.905935436948e+04      -1.935505920444e+04       1.463282713146e+07       5.295946054165e+06 
       5.416675657180e-03       1.844874459545e+07       1.795312003744e+07      -1.813751212655e+04      -1.841890548581e+04       1.450960600397e+07       5.278102265483e+06 
       5.540664842744e-03       1.838672187749e+07       1.789242860587e+07      -1.727682920526e+04      -1.754486114508e+04       1.438758816003e+07       5.260253422179e+06 
       5.664840235797e-03       1.832468357138e+07       1.783173357041e+07      -1.647238233339e+04      -1.672792339628e+04       1.426674130731e+07       5.242395219215e+06 
       5.789191064935e-03       1.826264389401e+07       1.777104374577e+07      -1.571948346633e+04      -1.596333242390e+04       1.414702251983e+07       5.224530323347e+06 
       5.913707396431e-03       1.820062731467e+07       1.771038025296e+07      -1.501377840350e+04      -1.524666955729e+04       1.402839771992e+07       5.206674106149e+06 
       6.038380058679e-03       1.813863373096e+07       1.764974570435e+07      -1.435142900382e+04      -1.457403827383e+04       1.391081812983e+07       5.188833502561e+06 
       6.163200574380e-03       1.807667144455e+07       1.758915179831e+07      -1.372916239449e+04      -1.394211301071e+04       1.379424356219e+07       5.171007991712e+06 
       6.288161099609e-03       1.801474892974e+07       1.752860655626e+07      -1.314404323773e+04      -1.334791056192e+04       1.367863335085e+07       5.153191596779e+06 
       6.413254368990e-03       1.795288042647e+07       1.746811996765e+07      -1.259327701974e+04      -1.278859294198e+04       1.356395153004e+07       5.135385223580e+06 
       6.538473646324e-03       1.789107357500e+07       1.740769622163e+07      -1.207418899255e+04      -1.226144582149e+04       1.345016160159e+07       5.117596522024e+06 
       6.663812680047e-03       1.782934024755e+07       1.734734749860e+07      -1.158438786416e+04      -1.176404201373e+04       1.333723734237e+07       5.099835410494e+06 
       6.789265663027e-03       1.776767693999e+07       1.728707238304e+07      -1.112181363987e+04      -1.129428867539e+04       1.322514660428e+07       5.082100143643e+06 
       6.914827196206e-03       1.770609360171e+07       1.722688053465e+07      -1.068463870315e+04      -1.085032824832e+04       1.311387034268e+07       5.064387010711e+06 
       7.040492255703e-03       1.764459658147e+07       1.716677511276e+07      -1.027111967717e+04      -1.043038987771e+04       1.300338871507e+07       5.046693954139e+06 
       7.166256162985e-03       1.758319528239e+07       1.710676250699e+07      -9.879567237133e+03      -1.003275910565e+04       1.289368810266e+07       5.029027131862e+06 
       7.292114557824e-03       1.752188909158e+07       1.704684202187e+07      -9.508425683219e+03      -9.655857148037e+03       1.278475290424e+07       5.011392177638e+06 
       7.418063373710e-03       1.746068471313e+07       1.698702198283e+07      -9.156354202163e+03      -9.298322089093e+03       1.267657707861e+07       4.993791649486e+06 
       7.544098815512e-03       1.739958767344e+07       1.692730866058e+07      -8.822171993474e+03      -8.958953685219e+03       1.256915476214e+07       4.976222110415e+06 
       7.670217339120e-03       1.733859812364e+07       1.686770057023e+07      -8.504752187195e+03      -8.636607078032e+03       1.246247585202e+07       4.958679587942e+06 
       7.796415632904e-03       1.727772321028e+07       1.680820301999e+07      -8.202989165921e+03      -8.330160118135e+03       1.235653580423e+07       4.941168162851e+06 
       7.922690600787e-03       1.721696832732e+07       1.674882150677e+07      -7.915846965206e+03      -8.038561604577e+03       1.225133028338e+07       4.923694504126e+06 
       8.049039346787e-03       1.715633362430e+07       1.668955788376e+07      -7.642417964799e+03      -7.760889826046e+03       1.214685206063e+07       4.906260141987e+06 
       8.175459160878e-03       1.709581701080e+07       1.663041148688e+07      -7.381911290419e+03      -7.496340851659e+03       1.204309116713e+07       4.888860656287e+06 
       8.301947506053e-03       1.703542835751e+07       1.657139113648e+07      -7.133582407446e+03      -7.244158100902e+03       1.194004384605e+07       4.871494895316e+06 
       8.428502006464e-03       1.697517311019e+07       1.651250086852e+07      -6.896687050598e+03      -7.003586104094e+03       1.183770160515e+07       4.854165389671e+06 
       8.555120436549e-03       1.691504803590e+07       1.645373713695e+07      -6.670510614012e+03      -6.773899825243e+03       1.173604992905e+07       4.836875623441e+06 
       8.681800711044e-03       1.685505683934e+07       1.639510496378e+07      -6.454424663307e+03      -6.554461204034e+03       1.163507954502e+07       4.819628690857e+06 
       8.808540875814e-03       1.679520060935e+07       1.633660619485e+07      -6.247886210308e+03      -6.344718284480e+03       1.153477873120e+07       4.802421996572e+06 
       8.935339099409e-03       1.673547938220e+07       1.627824006438e+07      -6.050384418700e+03      -6.144151853379e+03       1.143513399153e+07       4.785251657421e+06 
       9.062193665297e-03       1.667589691275e+07       1.622000875053e+07      -5.861406685374e+03      -5.952241516855e+03       1.133613423602e+07       4.768118896302e+06 
       9.189102964710e-03       1.661645463157e+07       1.616191284838e+07      -5.680451487406e+03      -5.768478486796e+03       1.123776846219e+07       4.751027897068e+06 
