# Rescaled matter transfer functions [-T_i(k)/k^2] for adiabatic (AD) mode (normalized to initial curvature=1) at redshift z=0
# for k=1.03281e-05 to 168.065 h/Mpc,
# number of wavenumbers equal to 627
# T_i   stands for (delta rho_i/rho_i)(k,z) with above normalization 
# The rescaling factor [-1/k^2] with k in 1/Mpc is here to match the CMBFAST/CAMB output convention
#
#
#    1:k (h/Mpc)              2:-T_cdm/k2              3:-T_b/k2                4:-T_g/k2                5:-T_ur/k2               6:-T_ncdm/k2             7:-T_tot/k2          
       1.032805019604e-05       1.944208587946e+07       1.967361174037e+07       2.621794812408e+07       2.621748944738e+07       1.966905551682e+07       5.872217521612e+06 
       2.303220226661e-05       1.944243459668e+07       1.967338819973e+07       2.616394019806e+07       2.616166305496e+07       1.966868144690e+07       5.872215772501e+06 
       3.577987141424e-05       1.944304246601e+07       1.967299139369e+07       2.606864944350e+07       2.606317085322e+07       1.966801838064e+07       5.872210503856e+06 
       4.860441929036e-05       1.944391785144e+07       1.967241727198e+07       2.593166007364e+07       2.592159485966e+07       1.966705997161e+07       5.872203091299e+06 
       6.153974491321e-05       1.944506381228e+07       1.967166395551e+07       2.575231820217e+07       2.573627626187e+07       1.966580081389e+07       5.872193255023e+06 
       7.462057872594e-05       1.944648945706e+07       1.967072389126e+07       2.552972485760e+07       2.550630955895e+07       1.966422853744e+07       5.872181303198e+06 
       8.788278581840e-05       1.944820611882e+07       1.966958802844e+07       2.526274710429e+07       2.523055407266e+07       1.966232790015e+07       5.872167818330e+06 
       1.013636822436e-04       1.945021901123e+07       1.966825065690e+07       2.495003025398e+07       2.490764870903e+07       1.966008551009e+07       5.872151752913e+06 
       1.151023683912e-04       1.945254588471e+07       1.966669694584e+07       2.458999311288e+07       2.453600725004e+07       1.965747722895e+07       5.872134171041e+06 
       1.291400834113e-04       1.945519849631e+07       1.966491390252e+07       2.418085524086e+07       2.411384984388e+07       1.965447894936e+07       5.872114515767e+06 
       1.435205846950e-04       1.945819421909e+07       1.966288716240e+07       2.372065514008e+07       2.363922315337e+07       1.965106317331e+07       5.872093165474e+06 
       1.582905563698e-04       1.946155195552e+07       1.966059781098e+07       2.320727796319e+07       2.311003036303e+07       1.964719558212e+07       5.872070369788e+06 
       1.735000506293e-04       1.946529388243e+07       1.965802280009e+07       2.263849471527e+07       2.252407937146e+07       1.964283513690e+07       5.872046747894e+06 
       1.892029654067e-04       1.946943962167e+07       1.965514045367e+07       2.201203507417e+07       2.187915528890e+07       1.963793923276e+07       5.872022137642e+06 
       2.054575613591e-04       1.947401360064e+07       1.965192270895e+07       2.132565076310e+07       2.117309833562e+07       1.963245549547e+07       5.871997182999e+06 
       2.223270202260e-04       1.947904025747e+07       1.964833862023e+07       2.057723624841e+07       2.040392563437e+07       1.962632479529e+07       5.871972501468e+06 
       2.398800452333e-04       1.948454333178e+07       1.964435386590e+07       1.976496549298e+07       1.956998417489e+07       1.961948014889e+07       5.871948565709e+06 
       2.581915021382e-04       1.949054599430e+07       1.963993131390e+07       1.888747811485e+07       1.867014975490e+07       1.961184658845e+07       5.871925929272e+06 
       2.773430965275e-04       1.949707015072e+07       1.963502745148e+07       1.794411820840e+07       1.770407418759e+07       1.960333680044e+07       5.871905523201e+06 
       2.974240788109e-04       1.950413351618e+07       1.962959437120e+07       1.693522426200e+07       1.667250137765e+07       1.959385215123e+07       5.871888365851e+06 
       3.185319626650e-04       1.951174687162e+07       1.962358057473e+07       1.586250254218e+07       1.557764971753e+07       1.958328243720e+07       5.871875205063e+06 
       3.407732351342e-04       1.951991242186e+07       1.961693027274e+07       1.472945587381e+07       1.442366217741e+07       1.957150394792e+07       5.871866929382e+06 
       3.642640268361e-04       1.952861817311e+07       1.960958229404e+07       1.354188036300e+07       1.321711866213e+07       1.955837699398e+07       5.871864173024e+06 
       3.891306984919e-04       1.953783163945e+07       1.960147074452e+07       1.230841211642e+07       1.196759064939e+07       1.954374503124e+07       5.871866942592e+06 
       4.155102852438e-04       1.954750012744e+07       1.959252999578e+07       1.104108441554e+07       1.068819564707e+07       1.952743797581e+07       5.871874536242e+06 
       4.435507232494e-04       1.955753071085e+07       1.958268906716e+07       9.755808404930e+06       9.396058090229e+06       1.950926480827e+07       5.871884254127e+06 
       4.734107648063e-04       1.956779494507e+07       1.957187947446e+07       8.472696745499e+06       8.112582374668e+06       1.948901960682e+07       5.871891228129e+06 
       5.052594706416e-04       1.957811209259e+07       1.956003415914e+07       7.216047403270e+06       6.863342809604e+06       1.946647872845e+07       5.871886737657e+06 
       5.392751541473e-04       1.958823817273e+07       1.954709194417e+07       6.013793971008e+06       5.677393152799e+06       1.944140371664e+07       5.871855929797e+06 
       5.756436468994e-04       1.959786143772e+07       1.953299927106e+07       4.896192024091e+06       4.585744299251e+06       1.941354193562e+07       5.871775701235e+06 
       6.145557638476e-04       1.960660071313e+07       1.951771652528e+07       3.893528772254e+06       3.618819543822e+06       1.938263240234e+07       5.871612427847e+06 
       6.562038770645e-04       1.961399831189e+07       1.950121685692e+07       3.032779883320e+06       2.802808846406e+06       1.934840523540e+07       5.871316753189e+06 
       7.007775653068e-04       1.961954528037e+07       1.948349067874e+07       2.333374243575e+06       2.155165256424e+06       1.931058806147e+07       5.870822977578e+06 
       7.484583963623e-04       1.962267917943e+07       1.946454554972e+07       1.802663974748e+06       1.679915435613e+06       1.926890964597e+07       5.870041475894e+06 
       7.994140176656e-04       1.962284507695e+07       1.944440039309e+07       1.432197778817e+06       1.364018022730e+06       1.922309980744e+07       5.868862086231e+06 
       8.537918663008e-04       1.961952771604e+07       1.942308045051e+07       1.196364651851e+06       1.176461756819e+06       1.917289251065e+07       5.867152962451e+06 
       9.117129401066e-04       1.961230482235e+07       1.940060899823e+07       1.054988918969e+06       1.071754913425e+06       1.911802784170e+07       5.864766143919e+06 
       9.732661666146e-04       1.960090979266e+07       1.937699227431e+07       9.607222264394e+05       9.985703369176e+05       1.905824913417e+07       5.861550653675e+06 
       1.038503933853e-03       1.958525738518e+07       1.935221348287e+07       8.703475857007e+05       9.123649912729e+05       1.899331055558e+07       5.857365041478e+06 
       1.107439283544e-03       1.956546471617e+07       1.932622246093e+07       7.567547298381e+05       7.882177024070e+05       1.892298041063e+07       5.852096871528e+06 
       1.180045109711e-03       1.954183017589e+07       1.929893799579e+07       6.165250779148e+05       6.282805381527e+05       1.884705649317e+07       5.845678537165e+06 
       1.256255476740e-03       1.951479055270e+07       1.927025214974e+07       4.684278145626e+05       4.588545134150e+05       1.876538082575e+07       5.838099644907e+06 
       1.335968915180e-03       1.948480709445e+07       1.924001574400e+07       3.416826119329e+05       3.162439977476e+05       1.867783654818e+07       5.829395117611e+06 
       1.419053325084e-03       1.945237898842e+07       1.920811250895e+07       2.586394441459e+05       2.269851773753e+05       1.858441771118e+07       5.819663211258e+06 
       1.505351961276e-03       1.941799148681e+07       1.917449547886e+07       2.212258690915e+05       1.930094327394e+05       1.848526230359e+07       5.809054913123e+06 
       1.594689916696e-03       1.938199453398e+07       1.913910658428e+07       2.098949276288e+05       1.912012625174e+05       1.838057579505e+07       5.797734559474e+06 
       1.686880555832e-03       1.934461664642e+07       1.910192167478e+07       1.966374061522e+05       1.886028651265e+05       1.827066146001e+07       5.785875425110e+06 
       1.781731456218e-03       1.930595950115e+07       1.906294969763e+07       1.636808134774e+05       1.635792610307e+05       1.815590603449e+07       5.773643066952e+06 
       1.879049557331e-03       1.926599590855e+07       1.902222921338e+07       1.144676123143e+05       1.181020774700e+05       1.803676144044e+07       5.761170962748e+06 
       1.978645360489e-03       1.922459404262e+07       1.897982361277e+07       6.854813774968e+04       7.229421507416e+04       1.791372381880e+07       5.748533201099e+06 
       2.080336146643e-03       1.918157082437e+07       1.893581600396e+07       4.446440520238e+04       4.605312916488e+04       1.778731263332e+07       5.735722809013e+06 
       2.183948269588e-03       1.913676312355e+07       1.889030774880e+07       4.459603202508e+04       4.296454820034e+04       1.765805499210e+07       5.722647913953e+06 
       2.289318638138e-03       1.909010222419e+07       1.884340733328e+07       5.434558730471e+04       4.943383351093e+04       1.752646162270e+07       5.709157330442e+06 
       2.396295526949e-03       1.904165517419e+07       1.879522048886e+07       5.556760210331e+04       4.841396322127e+04       1.739300755940e+07       5.695091295698e+06 
       2.504738859621e-03       1.899163220628e+07       1.874584717209e+07       4.175750611595e+04       3.438924758877e+04       1.725812124296e+07       5.680345746160e+06 
       2.614520097276e-03       1.894032214130e+07       1.869537231888e+07       2.158206131464e+04       1.612323573899e+04       1.712217148861e+07       5.664913455648e+06 
       2.725521847824e-03       1.888802362521e+07       1.864387158678e+07       8.728258851771e+03       6.040968156833e+03       1.698547094379e+07       5.648896690928e+06 
       2.837637290282e-03       1.883496355444e+07       1.859140973305e+07       8.696775625415e+03       7.709003660602e+03       1.684827550938e+07       5.632474974026e+06 
       2.950769488169e-03       1.878126249252e+07       1.853805191920e+07       1.502825382865e+04       1.357081083662e+04       1.671079825477e+07       5.615851091587e+06 
       3.064830647705e-03       1.872693627299e+07       1.848386881164e+07       1.723376396579e+04       1.385456888376e+04       1.657321826356e+07       5.599190538320e+06 
       3.179741361193e-03       1.867192754091e+07       1.842893237994e+07       1.126352377579e+04       7.623577047196e+03       1.643568252414e+07       5.582575529925e+06 
       3.295429863612e-03       1.861616720405e+07       1.837332175166e+07       2.004175432561e+03       8.892517391728e+03       1.629851558601e+07       5.565991529845e+06 
       3.411831320882e-03       1.855962104641e+07       1.831711519918e+07      -3.403387380284e+03       2.188791104969e+04       1.616167450432e+07       5.549341328874e+06 
       3.528887161076e-03       1.850232349800e+07       1.826038705089e+07      -3.220658377571e+03       3.658370383142e+04       1.602530177936e+07       5.532489459876e+06 
       3.646544454633e-03       1.844438469566e+07       1.820320234913e+07      -1.695538867343e+03       4.287645857985e+04       1.588956527175e+07       5.515319626677e+06 
       3.764755345943e-03       1.838596443391e+07       1.814561822974e+07      -3.086369900927e+03       3.960501300869e+04       1.575460589056e+07       5.497784129275e+06 
       3.883476536134e-03       1.832722720335e+07       1.808767867451e+07      -6.630824735488e+03       3.335830848986e+04       1.562053460015e+07       5.479926582636e+06 
       4.002668815275e-03       1.826830052436e+07       1.802942182075e+07      -7.999453458061e+03       3.096752521741e+04       1.548744119200e+07       5.461869572541e+06 
       4.122296641197e-03       1.820923847737e+07       1.797087536610e+07      -4.897516201032e+03       3.341906173330e+04       1.535539259349e+07       5.443766970737e+06 
       4.242327761559e-03       1.815002954120e+07       1.791206936443e+07       2.460089159831e+01       3.632813491911e+04       1.522444633058e+07       5.425748945597e+06 
       4.362732875585e-03       1.809061858837e+07       1.785303450706e+07       2.166046885415e+03       3.544768859196e+04       1.509465089485e+07       5.407874853879e+06 
       4.483485331834e-03       1.803094134720e+07       1.779379950229e+07       9.335486154314e+01       3.105228261130e+04       1.496604481790e+07       5.390116059799e+06 
       4.604560858490e-03       1.797097038340e+07       1.773439762495e+07      -3.182749074818e+03       2.697094356783e+04       1.483866253105e+07       5.372377675816e+06 
       4.725937322854e-03       1.791072864297e+07       1.767485935524e+07      -2.128323160750e+04      -2.164922409264e+04       1.471252889625e+07       5.354538999345e+06 
       4.847594516948e-03       1.785029027198e+07       1.761521408663e+07      -2.016018666543e+04      -2.050686830878e+04       1.458766004755e+07       5.336514230296e+06 
       4.969513966394e-03       1.778975294553e+07       1.755548382004e+07      -1.912331029509e+04      -1.945207419619e+04       1.446405883367e+07       5.318276658574e+06 
       5.091678760017e-03       1.772920806463e+07       1.749568538361e+07      -1.816255691957e+04      -1.847466849383e+04       1.434171666395e+07       5.299877863281e+06 
       5.214073397853e-03       1.766872710098e+07       1.743584567054e+07      -1.726810625921e+04      -1.756471794418e+04       1.422062665782e+07       5.281428556403e+06 
       5.336683655489e-03       1.760831322525e+07       1.737596790841e+07      -1.643155688657e+04      -1.671372069149e+04       1.410075681527e+07       5.263045030623e+06 
       5.459496462900e-03       1.754794094599e+07       1.731606949247e+07      -1.564675810143e+04      -1.591543698357e+04       1.398208186841e+07       5.244811668801e+06 
       5.582499796130e-03       1.748756342104e+07       1.725616660352e+07      -1.490987635213e+04      -1.516595353951e+04       1.386457197600e+07       5.226744964788e+06 
       5.705682580377e-03       1.742713605787e+07       1.719627161454e+07      -1.421876690876e+04      -1.446305358768e+04       1.374819155823e+07       5.208790432932e+06 
       5.829034603185e-03       1.736664635721e+07       1.713639972452e+07      -1.357195213640e+04      -1.380519400593e+04       1.363290594075e+07       5.190851516292e+06 
       5.952546436608e-03       1.730612169518e+07       1.707656834284e+07      -1.296761821769e+04      -1.319050124218e+04       1.351868137185e+07       5.172833727631e+06 
       6.076209367341e-03       1.724561206133e+07       1.701678700101e+07      -1.240301437161e+04      -1.261616997869e+04       1.340547824146e+07       5.154683294403e+06 
       6.200015333933e-03       1.718518129236e+07       1.695706795837e+07      -1.187442953769e+04      -1.207843971460e+04       1.329326029249e+07       5.136412202176e+06 
       6.323956870295e-03       1.712487899971e+07       1.689742052329e+07      -1.137765552425e+04      -1.157305762152e+04       1.318199123423e+07       5.118090586633e+06 
       6.448027054813e-03       1.706472214557e+07       1.683784809529e+07      -1.090870836015e+04      -1.109599953227e+04       1.307163278464e+07       5.099814736531e+06 
       6.572219464453e-03       1.700470389357e+07       1.677836009996e+07      -1.046445813300e+04      -1.064409940728e+04       1.296215524230e+07       5.081669723322e+06 
       6.696528133324e-03       1.694479356801e+07       1.671896325130e+07      -1.004294305924e+04      -1.021536272242e+04       1.285353078248e+07       5.063692263003e+06 
       6.820947515217e-03       1.688495485180e+07       1.665966193753e+07      -9.643252408811e+03      -9.808848800979e+03       1.274573396251e+07       5.045857698291e+06 
       6.945472449693e-03       1.682516627943e+07       1.660046108030e+07      -9.265067961838e+03      -9.424211815007e+03       1.263874416188e+07       5.028094232877e+06 
       7.070098131363e-03       1.676543499557e+07       1.654136918591e+07      -8.908073412811e+03      -9.061109898931e+03       1.253254724973e+07       5.010317032394e+06 
       7.194820082006e-03       1.670578304131e+07       1.648238637562e+07      -8.571474932977e+03      -8.718725453646e+03       1.242712600627e+07       4.992462520041e+06 
       7.319634125252e-03       1.664625170928e+07       1.642351965562e+07      -8.253818153859e+03      -8.395582240004e+03       1.232247121403e+07       4.974519959902e+06 
       7.444536363557e-03       1.658687908892e+07       1.636477546779e+07      -7.953146684737e+03      -8.089703839728e+03       1.221857522742e+07       4.956532778494e+06 
       7.569523157240e-03       1.652767998728e+07       1.630615305430e+07      -7.667381633973e+03      -7.798993065645e+03       1.211542675783e+07       4.938576625597e+06 
       7.694591105379e-03       1.646865064802e+07       1.624765510081e+07      -7.394762931945e+03      -7.521673239554e+03       1.201301784560e+07       4.920728409103e+06 
       7.819737028381e-03       1.640977199436e+07       1.618928621578e+07      -7.134144967894e+03      -7.256583597678e+03       1.191134258921e+07       4.903032860551e+06 
       7.944957952062e-03       1.635101917411e+07       1.613105111504e+07      -6.885036499906e+03      -7.003218929447e+03       1.181039518464e+07       4.885484501166e+06 
       8.070251093088e-03       1.629236707834e+07       1.607294737474e+07      -6.647395670617e+03      -6.761524314279e+03       1.171016418768e+07       4.868030070273e+06 
       8.195613845656e-03       1.623382093986e+07       1.601498653531e+07      -6.421292470795e+03      -6.531557583197e+03       1.161064748452e+07       4.850599251975e+06 
       8.321043769281e-03       1.617539513534e+07       1.595717062716e+07      -6.206565259548e+03      -6.313145610567e+03       1.151183535442e+07       4.833130665583e+06 
       8.446538577606e-03       1.611711228859e+07       1.589949921992e+07      -6.002635552304e+03      -6.105699151847e+03       1.141371502840e+07       4.815600244039e+06 
       8.572096128126e-03       1.605899890280e+07       1.584197480865e+07      -5.808532527696e+03      -5.908237429533e+03       1.131627489769e+07       4.798032595829e+06 
       8.697714412740e-03       1.600107112622e+07       1.578459932343e+07      -5.623097434863e+03      -5.719592528277e+03       1.121950229238e+07       4.780487680567e+06 
       8.823391549072e-03       1.594332597781e+07       1.572737114432e+07      -5.445267379606e+03      -5.538693134579e+03       1.112338206919e+07       4.763032702256e+06 
       8.949125772477e-03       1.588575215034e+07       1.567029465095e+07      -5.274312853402e+03      -5.364802035775e+03       1.102790323536e+07       4.745714731026e+06 
       9.074915428676e-03       1.582832451278e+07       1.561336657447e+07      -5.109918192358e+03      -5.197596379095e+03       1.093305040867e+07       4.728537431095e+06 
