# Matter power spectrum P(k) at redshift z=0
# for k=1.03205e-05 to 167.726 h/Mpc,
# number of wavenumbers equal to 627
#    1:k (h/Mpc)              2:P (Mpc/h)^3        
       1.032046293901e-05       4.850236123047e+01 
       2.300683923731e-05       1.055639259194e+02 
       3.573656822930e-05       1.618308813215e+02 
       4.854287129140e-05       2.178257717502e+02 
       6.145950357569e-05       2.738577860650e+02 
       7.452104600425e-05       3.301661337612e+02 
       8.776320634053e-05       3.869600856021e+02 
       1.012231332307e-04       4.444352287530e+02 
       1.149397471387e-04       5.027833277290e+02 
       1.289540921310e-04       5.621966615326e+02 
       1.433097124774e-04       6.228723615122e+02 
       1.580530579922e-04       6.850157486735e+02 
       1.732339218979e-04       7.488421089674e+02 
       1.889059146972e-04       8.145803965104e+02 
       2.051269769997e-04       8.824746893768e+02 
       2.219599333672e-04       9.527876991747e+02 
       2.394730878719e-04       1.025802915174e+03 
       2.577408600224e-04       1.101826420635e+03 
       2.768444567846e-04       1.181190346960e+03 
       2.968725723212e-04       1.264255854612e+03 
       3.179221014923e-04       1.351414641744e+03 
       3.400988457333e-04       1.443091783146e+03 
       3.635181803335e-04       1.539748765049e+03 
       3.883056401082e-04       1.641881504296e+03 
       4.145973659236e-04       1.750024772173e+03 
       4.425403377955e-04       1.864748596028e+03 
       4.722923022585e-04       1.986655994493e+03 
       5.040212842068e-04       2.116379269200e+03 
       5.379045595170e-04       2.254569604101e+03 
       5.741269589920e-04       2.401888404973e+03 
       6.128783824900e-04       2.558991429831e+03 
       6.543504313686e-04       2.726511745872e+03 
       6.987321239636e-04       2.905037270671e+03 
       7.462047463595e-04       3.095088074029e+03 
       7.969360069433e-04       3.297096173945e+03 
       8.510737970911e-04       3.511379147170e+03 
       9.087399903518e-04       3.738129490159e+03 
       9.700248087933e-04       3.977396859800e+03 
       1.034982315906e-03       4.229083948758e+03 
       1.103627537169e-03       4.492941048992e+03 
       1.175935557768e-03       4.768565909767e+03 
       1.251842723071e-03       5.055402501557e+03 
       1.331249814473e-03       5.352726885162e+03 
       1.414026844457e-03       5.659683251170e+03 
       1.500018956250e-03       5.975330359814e+03 
       1.589052850273e-03       6.298620743712e+03 
       1.680943190376e-03       6.628468638815e+03 
       1.775498544428e-03       6.963793147312e+03 
       1.872526552716e-03       7.303553796465e+03 
       1.971838160796e-03       7.646765364034e+03 
       2.073250877260e-03       7.992501470521e+03 
       2.176591108685e-03       8.339893892026e+03 
       2.281695681574e-03       8.688131056080e+03 
       2.388412688721e-03       9.036468313690e+03 
       2.496601802506e-03       9.384241183482e+03 
       2.606134188135e-03       9.730868761981e+03 
       2.716892132295e-03       1.007585805018e+04 
       2.828768482244e-03       1.041879474507e+04 
       2.941665970060e-03       1.075932574122e+04 
       3.055496478525e-03       1.109715291340e+04 
       3.170180289688e-03       1.143202065645e+04 
       3.285645344725e-03       1.176371007687e+04 
       3.401826534032e-03       1.209203147493e+04 
       3.518665029222e-03       1.241682661557e+04 
       3.636107663382e-03       1.273795794001e+04 
       3.754106362190e-03       1.305530186971e+04 
       3.872617625906e-03       1.336875174248e+04 
       3.991602060571e-03       1.367820659218e+04 
       4.111023955719e-03       1.398356623920e+04 
       4.230850905288e-03       1.428473918903e+04 
       4.351053468208e-03       1.458163730363e+04 
       4.471604865048e-03       1.487418726572e+04 
       4.592480707249e-03       1.516232122255e+04 
       4.713658755615e-03       1.544598689151e+04 
       4.835118704981e-03       1.572514163653e+04 
       4.956841992246e-03       1.599975969779e+04 
       5.078811625183e-03       1.626981167514e+04 
       5.201012029733e-03       1.653531999490e+04 
       5.323428913691e-03       1.679627150089e+04 
       5.446049144954e-03       1.705269433864e+04 
       5.568860642667e-03       1.730463178582e+04 
       5.691852279824e-03       1.755211091703e+04 
       5.815013796020e-03       1.779518505188e+04 
       5.938335719228e-03       1.803390552835e+04 
       6.061809295569e-03       1.826831372086e+04 
       6.185426426206e-03       1.849845899749e+04 
       6.309179610566e-03       1.872438854972e+04 
       6.433061895187e-03       1.894613741328e+04 
       6.557066827594e-03       1.916374592883e+04 
       6.681188414645e-03       1.937725065932e+04 
       6.805421084879e-03       1.958667285334e+04 
       6.929759654436e-03       1.979204009468e+04 
       7.054199296170e-03       1.999337831868e+04 
       7.178735511636e-03       2.019070195961e+04 
       7.303364105637e-03       2.038403808330e+04 
       7.428081163085e-03       2.057342186269e+04 
       7.552883027932e-03       2.075887582993e+04 
       7.677766283971e-03       2.094042442888e+04 
       7.802727737316e-03       2.111811288518e+04 
       7.927764400406e-03       2.129197724019e+04 
       8.052873477372e-03       2.146204865733e+04 
       8.178052350647e-03       2.162839005992e+04 
       8.303298568705e-03       2.179104772018e+04 
       8.428609834802e-03       2.195007258988e+04 
       8.553983996657e-03       2.210550263548e+04 
       8.679419036961e-03       2.225739444968e+04 
       8.804913064646e-03       2.240579286686e+04 
       8.930464306861e-03       2.255074365426e+04 
       9.056071101568e-03       2.269229315796e+04 
       9.181731890719e-03       2.283047703811e+04 
       9.307445213960e-03       2.296532895816e+04 
       9.433209702824e-03       2.309689193512e+04 
       9.559024075348e-03       2.322519407582e+04 
       9.684887131112e-03       2.335026352040e+04 
       9.810797746641e-03       2.347213624637e+04 
       9.936754871142e-03       2.359083971918e+04 
       1.006275752256e-02       2.370640112031e+04 
       1.018880478393e-02       2.381885506830e+04 
       1.031489579996e-02       2.392822268513e+04 
       1.044102977392e-02       2.403455545294e+04 
       1.056720596466e-02       2.413786921538e+04 
       1.069342368396e-02       2.423821820839e+04 
       1.081968229395e-02       2.433561885245e+04 
       1.094598120481e-02       2.443012546194e+04 
       1.107231987254e-02       2.452177264379e+04 
       1.119869779696e-02       2.461059187269e+04 
       1.132511451983e-02       2.469663268583e+04 
       1.145156962305e-02       2.477992005275e+04 
       1.157806272708e-02       2.486049551194e+04 
       1.170459348938e-02       2.493838873191e+04 
       1.183116160300e-02       2.501363871251e+04 
       1.195776679527e-02       2.508627558507e+04 
       1.208440882659e-02       2.515632903540e+04 
       1.221108748925e-02       2.522382781420e+04 
       1.233780260641e-02       2.528880350436e+04 
       1.246455403111e-02       2.535127697279e+04 
       1.259134164533e-02       2.541129195796e+04 
       1.271816535917e-02       2.546885980040e+04 
       1.284502511008e-02       2.552401646801e+04 
       1.297192086208e-02       2.557679443206e+04 
       1.309885260513e-02       2.562722126732e+04 
       1.322582035451e-02       2.567530668661e+04 
       1.335282415023e-02       2.572110588332e+04 
       1.347986405652e-02       2.576463504686e+04 
       1.360694016134e-02       2.580592557298e+04 
       1.373405257595e-02       2.584501646735e+04 
       1.386120143448e-02       2.588192342514e+04 
       1.398838689360e-02       2.591667781354e+04 
       1.411560913219e-02       2.594932100317e+04 
       1.424286835102e-02       2.597984526782e+04 
       1.437016477249e-02       2.600832882554e+04 
       1.449749864041e-02       2.603475719048e+04 
       1.452091028622e-02       2.603939335141e+04 
       1.462487021981e-02       2.605917316594e+04 
       1.475227979672e-02       2.608159603208e+04 
       1.487972767807e-02       2.610205690310e+04 
       1.500721419151e-02       2.612057840242e+04 
       1.513473968537e-02       2.613716470228e+04 
       1.526230452854e-02       2.615186882182e+04 
       1.538990911046e-02       2.616470617964e+04 
       1.551755384102e-02       2.617570005958e+04 
       1.564523915065e-02       2.618486985769e+04 
       1.577296549024e-02       2.619224427626e+04 
       1.590073333121e-02       2.619784348544e+04 
       1.602854316559e-02       2.620170041898e+04 
       1.615639550603e-02       2.620385298701e+04 
       1.628429088595e-02       2.620430770477e+04 
       1.641222985960e-02       2.620307278828e+04 
       1.654021300222e-02       2.620019378304e+04 
       1.666824091019e-02       2.619566394340e+04 
       1.679631420114e-02       2.618954453591e+04 
       1.692443351418e-02       2.618184207192e+04 
       1.705259951009e-02       2.617253844079e+04 
       1.718081287151e-02       2.616172888248e+04 
       1.730907430318e-02       2.614938035772e+04 
       1.743738453221e-02       2.613554826163e+04 
       1.756574430830e-02       2.612023571691e+04 
       1.769415440405e-02       2.610348229622e+04 
       1.782261561525e-02       2.608528709070e+04 
       1.795112876119e-02       2.606568632788e+04 
       1.807969468499e-02       2.604469690787e+04 
       1.820831425394e-02       2.602233196035e+04 
       1.833698835989e-02       2.599861228410e+04 
       1.846571791958e-02       2.597358629998e+04 
       1.859450387508e-02       2.594719909662e+04 
       1.872334719419e-02       2.591956883747e+04 
       1.885224887084e-02       2.589067268117e+04 
       1.898120992562e-02       2.586049128172e+04 
       1.911023140614e-02       2.582913120450e+04 
       1.923931438760e-02       2.579652841181e+04 
       1.936845997324e-02       2.576278150202e+04 
       1.949766929488e-02       2.572781360046e+04 
       1.962694351347e-02       2.569174409842e+04 
       1.975628381964e-02       2.565452681754e+04 
       1.988569143426e-02       2.561619983775e+04 
       2.001516760905e-02       2.557678143705e+04 
       2.014471362724e-02       2.553630213108e+04 
       2.027433080412e-02       2.549477582455e+04 
       2.040402048780e-02       2.545218203898e+04 
       2.053378405983e-02       2.540859253487e+04 
       2.066362293590e-02       2.536400752670e+04 
       2.079353856663e-02       2.531844914059e+04 
       2.092353243825e-02       2.527196098831e+04 
       2.105360607341e-02       2.522444742020e+04 
       2.118376103199e-02       2.517605439163e+04 
       2.131399891191e-02       2.512679163723e+04 
       2.144432134998e-02       2.507655173872e+04 
       2.157473002279e-02       2.502548123584e+04 
       2.170522664760e-02       2.497359377324e+04 
       2.183581298330e-02       2.492084282731e+04 
       2.196649083135e-02       2.486716178084e+04 
       2.209726203679e-02       2.481276039965e+04 
       2.222812848926e-02       2.475758931497e+04 
       2.235909212405e-02       2.470161887637e+04 
       2.249015492322e-02       2.464487620380e+04 
       2.262131891669e-02       2.458741098734e+04 
       2.275258618342e-02       2.452919602880e+04 
       2.288395885259e-02       2.447028939859e+04 
       2.301543910487e-02       2.441067692270e+04 
       2.314702917366e-02       2.435034736884e+04 
       2.327873134643e-02       2.428940995428e+04 
       2.341054796603e-02       2.422778871740e+04 
       2.354248143216e-02       2.416552396234e+04 
       2.367453420274e-02       2.410261057915e+04 
       2.380670879547e-02       2.403912007397e+04 
       2.393900778930e-02       2.397502503273e+04 
       2.407143382608e-02       2.391037955649e+04 
       2.420398961215e-02       2.384508017393e+04 
       2.433667792006e-02       2.377932364294e+04 
       2.446950159031e-02       2.371298087919e+04 
       2.460246353316e-02       2.364607778493e+04 
       2.473556673047e-02       2.357872534670e+04 
       2.486881423768e-02       2.351078796090e+04 
       2.500220918574e-02       2.344244442951e+04 
       2.513575478321e-02       2.337361427919e+04 
       2.526945431838e-02       2.330429174770e+04 
       2.540331116143e-02       2.323451385933e+04 
       2.553732876678e-02       2.316431483378e+04 
       2.567151067536e-02       2.309369570673e+04 
       2.580586051711e-02       2.302269878087e+04 
       2.594038201345e-02       2.295128462427e+04 
       2.607507897991e-02       2.287944064020e+04 
       2.620995532881e-02       2.280721131949e+04 
       2.634501507210e-02       2.273473282133e+04 
       2.648026232417e-02       2.266178588886e+04 
       2.661570130492e-02       2.258850244181e+04 
       2.675133634281e-02       2.251492736939e+04 
       2.688717187812e-02       2.244099014525e+04 
       2.702321246625e-02       2.236676814930e+04 
       2.715946278119e-02       2.229225307013e+04 
       2.729592761910e-02       2.221750020441e+04 
       2.743261190203e-02       2.214238033683e+04 
       2.756952068177e-02       2.206705017391e+04 
       2.770665914387e-02       2.199139302980e+04 
       2.784403261178e-02       2.191556769554e+04 
       2.798164655117e-02       2.183950127365e+04 
       2.811950657441e-02       2.176319841167e+04 
       2.825761844524e-02       2.168661594378e+04 
       2.839598808359e-02       2.160988478479e+04 
       2.853462157063e-02       2.153294884759e+04 
       2.867352515401e-02       2.145578794012e+04 
       2.881270525327e-02       2.137843338380e+04 
       2.895216846553e-02       2.130096865881e+04 
       2.909192157141e-02       2.122327859003e+04 
       2.923197154111e-02       2.114544955773e+04 
       2.937232554085e-02       2.106752150398e+04 
       2.951299093953e-02       2.098935808612e+04 
       2.965397531565e-02       2.091113183080e+04 
       2.979528646459e-02       2.083272595219e+04 
       2.993693240611e-02       2.075424823066e+04 
       3.007892139229e-02       2.067563120167e+04 
       3.022126191569e-02       2.059689958828e+04 
       3.036396271800e-02       2.051810573017e+04 
       3.050703279898e-02       2.043919894277e+04 
       3.065048142582e-02       2.036018836918e+04 
       3.079431814297e-02       2.028111422674e+04 
       3.093855278234e-02       2.020201050550e+04 
       3.108319547409e-02       2.012277707597e+04 
       3.122825665778e-02       2.004358385829e+04 
       3.137374709416e-02       1.996422420971e+04 
       3.151967787743e-02       1.988480430100e+04 
       3.166606044822e-02       1.980539918055e+04 
       3.181290660699e-02       1.972597388008e+04 
       3.196022852831e-02       1.964653149847e+04 
       3.210803877570e-02       1.956700863326e+04 
       3.225635031724e-02       1.948749379506e+04 
       3.240517654198e-02       1.940797664759e+04 
       3.255453127721e-02       1.932837456511e+04 
       3.270442880654e-02       1.924882152623e+04 
       3.285488388903e-02       1.916926424183e+04 
       3.300591177918e-02       1.908971986392e+04 
       3.315752824812e-02       1.901017353498e+04 
       3.330974960584e-02       1.893063763203e+04 
       3.346259272467e-02       1.885112175329e+04 
       3.361607506404e-02       1.877157075696e+04 
       3.377021469655e-02       1.869206167936e+04 
       3.392503033560e-02       1.861260905714e+04 
       3.408054136449e-02       1.853315628724e+04 
       3.423676786725e-02       1.845374607682e+04 
       3.439373066119e-02       1.837434577709e+04 
       3.455145133141e-02       1.829500884342e+04 
       3.470995226731e-02       1.821561947382e+04 
       3.486925670130e-02       1.813643274340e+04 
       3.502938874986e-02       1.805714876252e+04 
       3.519037345711e-02       1.797792741308e+04 
       3.535223684106e-02       1.789872930367e+04 
       3.551500594279e-02       1.781965803591e+04 
       3.567870887877e-02       1.774056301782e+04 
       3.584337489648e-02       1.766156768957e+04 
       3.600903443373e-02       1.758253562960e+04 
       3.617571918181e-02       1.750358409294e+04 
       3.634346215296e-02       1.742472656886e+04 
       3.651229775230e-02       1.734586628424e+04 
       3.668226185481e-02       1.726706587916e+04 
       3.685339188752e-02       1.718826593833e+04 
       3.702572691763e-02       1.710959451401e+04 
       3.719930774681e-02       1.703089750143e+04 
       3.737417701244e-02       1.695224613770e+04 
       3.755037929615e-02       1.687369267811e+04 
       3.772796124057e-02       1.679510151354e+04 
       3.790697167483e-02       1.671661422072e+04 
       3.808746174969e-02       1.663810082724e+04 
       3.826948508320e-02       1.655969694675e+04 
       3.845309791784e-02       1.648126298692e+04 
       3.863835929032e-02       1.640287670534e+04 
       3.882533121509e-02       1.632450625883e+04 
       3.901407888314e-02       1.624614488595e+04 
       3.920467087747e-02       1.616779005411e+04 
       3.939717940688e-02       1.608951496123e+04 
       3.959168056017e-02       1.601116816380e+04 
       3.978825458266e-02       1.593285679064e+04 
       3.998698617760e-02       1.585448791394e+04 
       4.018796483501e-02       1.577620255428e+04 
       4.039128519109e-02       1.569780276354e+04 
       4.059704742158e-02       1.561941997391e+04 
       4.080535767297e-02       1.554104425454e+04 
       4.101632853589e-02       1.546253894422e+04 
       4.123007956581e-02       1.538403530456e+04 
       4.144673785661e-02       1.530547044735e+04 
       4.166643867354e-02       1.522681128602e+04 
       4.188932615315e-02       1.514812127218e+04 
       4.211555407853e-02       1.506930780535e+04 
       4.234528673975e-02       1.499040177728e+04 
       4.257869989088e-02       1.491136693996e+04 
       4.281598181656e-02       1.483220103053e+04 
       4.305733452334e-02       1.475288087089e+04 
       4.330297507337e-02       1.467343754809e+04 
       4.355313708104e-02       1.459381162808e+04 
       4.380807239650e-02       1.451393172361e+04 
       4.406805300438e-02       1.443390361780e+04 
       4.433337317068e-02       1.435359290272e+04 
       4.460435187711e-02       1.427303640682e+04 
       4.488133558933e-02       1.419218455425e+04 
       4.516470141400e-02       1.411104028979e+04 
       4.545486071082e-02       1.402957476685e+04 
       4.575226323807e-02       1.394768715621e+04 
       4.605740192685e-02       1.386542699523e+04 
       4.637081839818e-02       1.378273627404e+04 
       4.669310936223e-02       1.369951923504e+04 
       4.702493406836e-02       1.361578177885e+04 
       4.736702301305e-02       1.353148129484e+04 
       4.772018815940e-02       1.344653719777e+04 
       4.808533498146e-02       1.336093148405e+04 
       4.846347672147e-02       1.327449408160e+04 
       4.885575134241e-02       1.318725415443e+04 
       4.926344177915e-02       1.309910757883e+04 
       4.968800024398e-02       1.300989289167e+04 
       5.013107753792e-02       1.291959009425e+04 
       5.059455856780e-02       1.282799146102e+04 
       5.108060558519e-02       1.273496968784e+04 
       5.159171106315e-02       1.264039485171e+04 
       5.213076262580e-02       1.254398297104e+04 
       5.270112305700e-02       1.244548746226e+04 
       5.330672913607e-02       1.234463471832e+04 
       5.395221384313e-02       1.224107468384e+04 
       5.464305722971e-02       1.213429817091e+04 
       5.538577168151e-02       1.202371438068e+04 
       5.618812680135e-02       1.190857158751e+04 
       5.705941647049e-02       1.178789641071e+04 
       5.801076340283e-02       1.166042597434e+04 
       5.905544030029e-02       1.152441912318e+04 
