# total lensed [l(l+1)/2pi] C_l's (units: [microK]^2)
# for l=2 to 2500, i.e. number of multipoles equal to 2499
#
# -> if you don't want to see such a header, set 'headers' to 'no' in input file
# -> for CMB lensing (d), these are C_l^dd for the deflection field.
#    Remember the conversion factors:
#    C_l^dd (deflection) = l(l+1) C_l^phi-phi
#    C_l^gg (shear/convergence) = 1/4 (l(l+1))^2 C_l^phi-phi
#
# 1:l     2:TT                     3:EE                     4:BB                     5:TE                     6:dd                     7:dT                     8:dE                 
    2       1.069920618622e+03       6.318956575040e-02       1.628336020714e-06       3.723224397151e+00       4.944754578969e-08       3.196734149889e-03      -1.744021596827e-05 
    3       1.006051931936e+03       1.146053528664e-01       3.258863869869e-06       4.859004911096e+00       6.141119776281e-08       3.229834130138e-03      -2.247102718027e-05 
    4       9.427322261585e+02       1.436894986910e-01       5.436226861453e-06       5.182207502979e+00       7.130481005113e-08       3.175968629960e-03      -2.407872641000e-05 
    5       8.920792335264e+02       1.437064359123e-01       8.163117900205e-06       4.989302377878e+00       7.991735011999e-08       3.089402765374e-03      -2.301395583893e-05 
    6       8.540463012773e+02       1.209318652014e-01       1.144271337226e-05       4.506201405072e+00       8.747441020558e-08       2.987984704665e-03      -1.991117686479e-05 
    7       8.265117521366e+02       8.785954032072e-02       1.527855803913e-05       3.895025162459e+00       9.411602917851e-08       2.880460643692e-03      -1.548766644753e-05 
    8       8.078640240275e+02       5.619973255019e-02       1.967443769322e-05       3.256575598095e+00       9.999119163403e-08       2.772011122298e-03      -1.046489425302e-05 
    9       7.957869267960e+02       3.294493289782e-02       2.463424471266e-05       2.654673455445e+00       1.052481793850e-07       2.665507220083e-03      -5.505830998677e-06 
   10       7.891812980288e+02       1.968551915064e-02       3.016184193386e-05       2.130059145770e+00       1.100131366736e-07       2.562665069834e-03      -1.152910938609e-06 
   11       7.867909825117e+02       1.421329779530e-02       3.626093031929e-05       1.707102029472e+00       1.112130296531e-07       2.469689743838e-03       2.183605150321e-06 
   12       7.874195604688e+02       1.292058876743e-02       4.293492573345e-05       1.397579619173e+00       1.148547150574e-07       2.372868990913e-03       4.364520186559e-06 
   13       7.909013626979e+02       1.275393564999e-02       5.018684975885e-05       1.200199781912e+00       1.181140909156e-07       2.282096349516e-03       5.340413572922e-06 
   14       7.963737684836e+02       1.212546972008e-02       5.801923890022e-05       1.102609622360e+00       1.210359740111e-07       2.202420198588e-03       5.232053032364e-06 
   15       8.032808967521e+02       1.083250560314e-02       6.643407576440e-05       1.085818847265e+00       1.236568385603e-07       2.125068377674e-03       4.240855632418e-06 
   16       8.116047005678e+02       9.425911232687e-03       7.543274489471e-05       1.126348156863e+00       1.260059575136e-07       2.052073693516e-03       2.660861794513e-06 
   17       8.208613636223e+02       8.523745263956e-03       8.501601492037e-05       1.201012973228e+00       1.281104400900e-07       1.984484653947e-03       8.049473634511e-07 
   18       8.310140388907e+02       8.401788664033e-03       9.518403463806e-05       1.289600782510e+00       1.299434047744e-07       1.921121912165e-03      -1.029069363129e-06 
   19       8.420817695956e+02       8.887176058024e-03       1.059364331819e-04       1.378714586188e+00       1.316757751917e-07       1.863476528356e-03      -2.620235122133e-06 
   20       8.536394538159e+02       9.602320906017e-03       1.172722386114e-04       1.455403699024e+00       1.331672334628e-07       1.808945556307e-03      -3.780200798063e-06 
   21       8.657326972263e+02       1.027014414979e-02       1.291901494459e-04       1.515333432009e+00       1.345059763481e-07       1.756594057261e-03      -4.421875352322e-06 
   22       8.783284059523e+02       1.066626602236e-02       1.416884364000e-04       1.557776143984e+00       1.356669332573e-07       1.703782413176e-03      -4.547837314494e-06 
   23       8.913856448792e+02       1.088955442730e-02       1.547652626316e-04       1.584682769992e+00       1.367208149114e-07       1.652524190867e-03      -4.213082152099e-06 
   24       9.047304283297e+02       1.117370139168e-02       1.684185851716e-04       1.599912596500e+00       1.376189042088e-07       1.605042383950e-03      -3.543708252760e-06 
   25       9.184577534860e+02       1.171789526609e-02       1.826465259890e-04       1.608300303476e+00       1.384159126269e-07       1.561695885795e-03      -2.669880863133e-06 
   26       9.326119248521e+02       1.269614779529e-02       1.974472506064e-04       1.615490367774e+00       1.390898281749e-07       1.520671105089e-03      -1.756202573315e-06 
   27       9.470695958733e+02       1.410575189957e-02       2.128192928391e-04       1.625559812062e+00       1.396681679945e-07       1.480619986619e-03      -9.378708344779e-07 
   28       9.616036481584e+02       1.587741723065e-02       2.287614787565e-04       1.641807922727e+00       1.401151054331e-07       1.439721446392e-03      -3.423989079353e-07 
   29       9.762766978167e+02       1.796402502726e-02       2.452732958880e-04       1.664701713032e+00       1.405043312814e-07       1.399169365043e-03      -1.764783650589e-08 
   30       9.911723212933e+02       2.030909881975e-02       2.623546959500e-04       1.693390498889e+00       1.408560389427e-07       1.360810549365e-03       3.039683939270e-08 
   31       1.006302849714e+03       2.285096096577e-02       2.800060968081e-04       1.726170832722e+00       1.410890953436e-07       1.325860333696e-03      -1.779387012192e-07 
   32       1.021692695632e+03       2.558561779373e-02       2.982286202074e-04       1.759991906614e+00       1.412486265755e-07       1.294454981521e-03      -5.939854820811e-07 
   33       1.037307523565e+03       2.852690780059e-02       3.170240394906e-04       1.790618921507e+00       1.413635378293e-07       1.265507201361e-03      -1.132295280263e-06 
   34       1.053066554712e+03       3.168203851143e-02       3.363947170328e-04       1.813326749210e+00       1.413976597103e-07       1.237208321043e-03      -1.682999822051e-06 
   35       1.068996450400e+03       3.502261535333e-02       3.563433962193e-04       1.825176088662e+00       1.413830424414e-07       1.209437089439e-03      -2.179266749690e-06 
   36       1.085119335636e+03       3.850264506281e-02       3.768734269731e-04       1.823466176292e+00       1.413262917421e-07       1.182273927768e-03      -2.557314971619e-06 
   37       1.101424667701e+03       4.208191518237e-02       3.979886069265e-04       1.805751214860e+00       1.411877829735e-07       1.155524314453e-03      -2.753862950457e-06 
   38       1.117931948339e+03       4.578243473354e-02       4.196922721203e-04       1.772033847363e+00       1.410060791976e-07       1.129468418589e-03      -2.762661624939e-06 
   39       1.134640508575e+03       4.965100813675e-02       4.419879677867e-04       1.723316956896e+00       1.408171905561e-07       1.104335901356e-03      -2.605034062323e-06 
   40       1.151507219050e+03       5.374502119733e-02       4.648797283969e-04       1.661056006651e+00       1.406078843549e-07       1.080044564248e-03      -2.318707801250e-06 
   41       1.168473755460e+03       5.812063136866e-02       4.883716618395e-04       1.586929898539e+00       1.403310056064e-07       1.056327442025e-03      -1.953860656508e-06 
   42       1.185569402829e+03       6.279103750299e-02       5.124664706947e-04       1.501989412216e+00       1.400092302204e-07       1.033356100042e-03      -1.552592571383e-06 
   43       1.202834482576e+03       6.775579991512e-02       5.371664975157e-04       1.407283663823e+00       1.396680220437e-07       1.011306306694e-03      -1.163713415390e-06 
   44       1.220289587380e+03       7.301201622865e-02       5.624741255515e-04       1.304109120764e+00       1.392999035007e-07       9.901557806422e-04      -8.497773985218e-07 
   45       1.237939855953e+03       7.855517805683e-02       5.883913684056e-04       1.193617332783e+00       1.388768084659e-07       9.697646432946e-04      -6.722167569058e-07 
   46       1.255794346951e+03       8.438243263606e-02       6.149184981274e-04       1.075467765014e+00       1.384230374774e-07       9.502544958300e-04      -6.348697698874e-07 
   47       1.273848829352e+03       9.049001752939e-02       6.420550030759e-04       9.487942416279e-01       1.379669872166e-07       9.317320395958e-04      -7.180997344401e-07 
   48       1.292078159989e+03       9.687222234678e-02       6.697999352390e-04       8.125650801512e-01       1.375166747728e-07       9.141626575306e-04      -8.919069533151e-07 
   49       1.310434519895e+03       1.035212836422e-01       6.981518844424e-04       6.655727034184e-01       1.370535500993e-07       8.973462629883e-04      -1.114642121908e-06 
   50       1.328868512323e+03       1.104295103237e-01       7.271088883599e-04       5.065924397096e-01       1.365445774963e-07       8.810073109077e-04      -1.340185258219e-06 
   51       1.347403299854e+03       1.175965838545e-01       7.566681935882e-04       3.349338394835e-01       1.360038750606e-07       8.651703115515e-04      -1.546244514659e-06 
   52       1.366077542386e+03       1.250240579320e-01       7.868263851358e-04       1.500210509606e-01       1.354517109471e-07       8.498911492499e-04      -1.715112022262e-06 
   53       1.384923622793e+03       1.327133010299e-01       8.175794168235e-04      -4.876565735124e-02       1.348950926194e-07       8.351427013130e-04      -1.825849658464e-06 
   54       1.403966959117e+03       1.406654962610e-01       8.489225824715e-04      -2.620923229083e-01       1.343241279308e-07       8.208020883707e-04      -1.854014886482e-06 
   55       1.423225441299e+03       1.488814681855e-01       8.808510384742e-04      -4.904616980285e-01       1.337204867355e-07       8.067114722225e-04      -1.779340069854e-06 
   56       1.442709153235e+03       1.573611131701e-01       9.133615895543e-04      -7.335179463050e-01       1.330977940867e-07       7.929191834377e-04      -1.612834492896e-06 
   57       1.462419376919e+03       1.661038272771e-01       9.464512961606e-04      -9.905734676257e-01       1.324737566606e-07       7.795038794157e-04      -1.379154566947e-06 
   58       1.482347793763e+03       1.751086601895e-01       9.801169547775e-04      -1.260800074940e+00       1.318573616142e-07       7.665020005046e-04      -1.110122948476e-06 
   59       1.502475801632e+03       1.843743083306e-01       1.014355090594e-03      -1.543223160092e+00       1.312466387574e-07       7.539013556789e-04      -8.454043877113e-07 
   60       1.522773831895e+03       1.938991079848e-01       1.049161950176e-03      -1.836715859661e+00       1.306262184067e-07       7.416344294773e-04      -6.332055474875e-07 
   61       1.543212925965e+03       2.036810441381e-01       1.084534305525e-03      -2.140254626355e+00       1.299755022769e-07       7.296143583791e-04      -5.188684031512e-07 
   62       1.563804046460e+03       2.137177948854e-01       1.120472093757e-03      -2.453766176938e+00       1.293040362745e-07       7.178735602006e-04      -5.044153137163e-07 
   63       1.584566418097e+03       2.240066848278e-01       1.156976359618e-03      -2.777461163202e+00       1.286269971956e-07       7.064590418642e-04      -5.767636923395e-07 
   64       1.605515758664e+03       2.345446639765e-01       1.194048514425e-03      -3.111591953073e+00       1.279545757953e-07       6.953899199666e-04      -7.183143834222e-07 
   65       1.626663985047e+03       2.453283013716e-01       1.231690354480e-03      -3.456455090653e+00       1.272907429777e-07       6.846536881931e-04      -9.065415274729e-07 
   66       1.648018919260e+03       2.563537787008e-01       1.269904079488e-03      -3.812393756249e+00       1.266319122645e-07       6.742023389420e-04      -1.113568844873e-06 
   67       1.669583994474e+03       2.676168839185e-01       1.308692310968e-03      -4.179800226419e+00       1.259654952412e-07       6.639483391628e-04      -1.305732338548e-06 
   68       1.691361049851e+03       2.791127311508e-01       1.348057984145e-03      -4.559015009639e+00       1.252761447329e-07       6.537985099905e-04      -1.451212953900e-06 
   69       1.713360029786e+03       2.908348687687e-01       1.388003957021e-03      -4.949995021648e+00       1.245712041053e-07       6.437773873002e-04      -1.546696624237e-06 
   70       1.735590730918e+03       3.027759782935e-01       1.428533354809e-03      -5.352582284084e+00       1.238625983809e-07       6.339336175436e-04      -1.597958103462e-06 
   71       1.758059676080e+03       3.149281189783e-01       1.469649704355e-03      -5.766601120541e+00       1.231592698158e-07       6.243035421875e-04      -1.612611763497e-06 
   72       1.780769899334e+03       3.272827144263e-01       1.511356949317e-03      -6.191857974036e+00       1.224664887743e-07       6.149095345727e-04      -1.600262846531e-06 
   73       1.803720730989e+03       3.398305392097e-01       1.553659465343e-03      -6.628141224482e+00       1.217851119778e-07       6.057582762239e-04      -1.572663245292e-06 
   74       1.826907582629e+03       3.525617054881e-01       1.596562075254e-03      -7.075221006152e+00       1.211107866102e-07       5.968389726127e-04      -1.543871811314e-06 
   75       1.850321732141e+03       3.654656496268e-01       1.640070064216e-03      -7.532849025153e+00       1.204330987626e-07       5.881215083710e-04      -1.530419191229e-06 
   76       1.873953976124e+03       3.785318676645e-01       1.684188147706e-03      -8.000757540406e+00       1.197401795699e-07       5.795719798977e-04      -1.547485128435e-06 
   77       1.897806831284e+03       3.917523061300e-01       1.728917124563e-03      -8.478656495536e+00       1.190366349952e-07       5.712085860866e-04      -1.595827258483e-06 
   78       1.921884177794e+03       4.051193849166e-01       1.774256638344e-03      -8.966235529916e+00       1.183304040184e-07       5.630574770087e-04      -1.671603167678e-06 
   79       1.946187455818e+03       4.186252890526e-01       1.820206164205e-03      -9.463164572309e+00       1.176274234296e-07       5.551356620921e-04      -1.769988395325e-06 
   80       1.970715529837e+03       4.322619706757e-01       1.866765002606e-03      -9.969093641178e+00       1.169312263648e-07       5.474499914485e-04      -1.885105482245e-06 
   81       1.995464552982e+03       4.460211510075e-01       1.913932273016e-03      -1.048365264501e+01       1.162425135264e-07       5.399961046962e-04      -2.009951126734e-06 
   82       2.020427831362e+03       4.598943223272e-01       1.961706907617e-03      -1.100645118263e+01       1.155586963813e-07       5.327573472818e-04      -2.136321447959e-06 
   83       2.045595688392e+03       4.738727499465e-01       2.010087645010e-03      -1.153707834350e+01       1.148734116296e-07       5.257036543000e-04      -2.254735356805e-06 
   84       2.070959149598e+03       4.879468172606e-01       2.059073160896e-03      -1.207512777793e+01       1.141795782725e-07       5.188033236424e-04      -2.356415249966e-06 
   85       2.096521996080e+03       5.021039318250e-01       2.108662498792e-03      -1.262027812024e+01       1.134809455776e-07       5.120643141515e-04      -2.439976078756e-06 
   86       2.122290469805e+03       5.163302741568e-01       2.158854699510e-03      -1.317222559390e+01       1.127833766930e-07       5.055010623184e-04      -2.506248382729e-06 
   87       2.148269560385e+03       5.306114148606e-01       2.209648666596e-03      -1.373066014881e+01       1.120913729672e-07       4.991218772278e-04      -2.556383947772e-06 
   88       2.174462933617e+03       5.449323055623e-01       2.261043162331e-03      -1.429526568632e+01       1.114078292254e-07       4.929283442406e-04      -2.591878456908e-06 
   89       2.200872860021e+03       5.592772698426e-01       2.313036803746e-03      -1.486572028423e+01       1.107337739900e-07       4.869147115959e-04      -2.614594706010e-06 
   90       2.227500143382e+03       5.736299941708e-01       2.365628058622e-03      -1.544169642182e+01       1.100680942932e-07       4.810672599313e-04      -2.626786384414e-06 
   91       2.254344049283e+03       5.879735188379e-01       2.418815241504e-03      -1.602286120488e+01       1.094072447276e-07       4.753636547222e-04      -2.631122420440e-06 
   92       2.281402233652e+03       6.022902288905e-01       2.472596509699e-03      -1.660887659073e+01       1.087449403837e-07       4.697722816405e-04      -2.630711891819e-06 
   93       2.308671946867e+03       6.165631137994e-01       2.526971109282e-03      -1.719938775276e+01       1.080747456627e-07       4.642625103341e-04      -2.628439711118e-06 
   94       2.336154008471e+03       6.307797828752e-01       2.581943336115e-03      -1.779398568352e+01       1.073994838310e-07       4.588396719132e-04      -2.624744332321e-06 
   95       2.363849300911e+03       6.449290398188e-01       2.637519165954e-03      -1.839223935704e+01       1.067240252546e-07       4.535166811707e-04      -2.619387619244e-06 
   96       2.391757494008e+03       6.589996760335e-01       2.693705070526e-03      -1.899370714948e+01       1.060524915636e-07       4.483035059895e-04      -2.612099465824e-06 
   97       2.419876990998e+03       6.729804789750e-01       2.750508030696e-03      -1.959793690134e+01       1.053881235095e-07       4.432068873252e-04      -2.602575909530e-06 
   98       2.448204874587e+03       6.868602404998e-01       2.807935549633e-03      -2.020446597970e+01       1.047331413180e-07       4.382300517499e-04      -2.590477202050e-06 
   99       2.476736852994e+03       7.006277652153e-01       2.865995665971e-03      -2.081282134044e+01       1.040885973784e-07       4.333724165565e-04      -2.575425837264e-06 
  100       2.505467206005e+03       7.142718788286e-01       2.924696966982e-03      -2.142251959040e+01       1.034542211069e-07       4.286292874224e-04      -2.557004536505e-06 
  101       2.534388731015e+03       7.277814364956e-01       2.984048601734e-03      -2.203306704965e+01       1.028282558248e-07       4.239915486355e-04      -2.534754191097e-06 
  102       2.563492689083e+03       7.411453311709e-01       3.044060294261e-03      -2.264395981369e+01       1.022072874886e-07       4.194453458784e-04      -2.508171762184e-06 
  103       2.592768750977e+03       7.543525019565e-01       3.104742356726e-03      -2.325468381562e+01       1.015860651133e-07       4.149717615751e-04      -2.476708137835e-06 
  104       2.622207180274e+03       7.673916660553e-01       3.166104405463e-03      -2.386472054140e+01       1.009594455670e-07       4.105528705800e-04      -2.439953223094e-06 
  105       2.651805834718e+03       7.802504554109e-01       3.228151283218e-03      -2.447356492063e+01       1.003292579849e-07       4.061920451611e-04      -2.398238963185e-06 
  106       2.681564014468e+03       7.929161784626e-01       3.290886608045e-03      -2.508070997975e+01       9.969892377961e-08       4.018971323951e-04      -2.352154043405e-06 
  107       2.711480280484e+03       8.053760913749e-01       3.354314020156e-03      -2.568564152773e+01       9.907141410635e-08       3.976742863873e-04      -2.302371140301e-06 
