# total [l(l+1)/2pi] C_l's (units: [microK]^2)
# for l=2 to 3000, i.e. number of multipoles equal to 2999
#
# -> if you don't want to see such a header, set 'headers' to 'no' in input file
# -> for CMB lensing (d), these are C_l^dd for the deflection field.
#    Remember the conversion factors:
#    C_l^dd (deflection) = l(l+1) C_l^phi-phi
#    C_l^gg (shear/convergence) = 1/4 (l(l+1))^2 C_l^phi-phi
#
# 1:l     2:TT                     3:EE                     4:BB                     5:TE                     6:dd                     7:dT                     8:dE                 
    2       1.073192211008e+03       6.316575741678e-02       0.000000000000e+00       3.718507885941e+00       4.943592811505e-08       3.208432160451e-03      -1.743022952363e-05 
    3       1.007964988529e+03       1.145769258686e-01       0.000000000000e+00       4.854924806374e+00       6.140335165788e-08       3.239588587348e-03      -2.246280649091e-05 
    4       9.438870110863e+02       1.436719191838e-01       0.000000000000e+00       5.179888775271e+00       7.129652731928e-08       3.183702541157e-03      -2.407331368042e-05 
    5       8.927928618583e+02       1.437065200202e-01       0.000000000000e+00       4.988351454715e+00       7.990724953389e-08       3.095390017576e-03      -2.301141866144e-05 
    6       8.544876501720e+02       1.209464287038e-01       0.000000000000e+00       4.506085705468e+00       8.746558381703e-08       2.992590741138e-03      -1.991147366630e-05 
    7       8.267858495063e+02       8.787846641746e-02       0.000000000000e+00       3.895380848924e+00       9.410991906718e-08       2.884071814005e-03      -1.549039472787e-05 
    8       8.080276650610e+02       5.621173440432e-02       0.000000000000e+00       3.257155981379e+00       9.998608733628e-08       2.774810190483e-03      -1.046931449545e-05 
    9       7.958670872155e+02       3.294244510310e-02       0.000000000000e+00       2.655323425529e+00       1.052449159936e-07       2.667531032932e-03      -5.510982188104e-06 
   10       7.891911186442e+02       1.966658581619e-02       0.000000000000e+00       2.130699696228e+00       1.100108593513e-07       2.564069630414e-03      -1.157795068910e-06 
   11       7.867687199653e+02       1.418040825810e-02       0.000000000000e+00       1.707686430489e+00       1.112144072759e-07       2.470865417970e-03       2.180064061582e-06 
   12       7.873680177478e+02       1.287783406010e-02       0.000000000000e+00       1.398056994345e+00       1.148568053678e-07       2.373753578148e-03       4.362308477681e-06 
   13       7.908288065500e+02       1.270437671946e-02       0.000000000000e+00       1.200522876262e+00       1.181165322876e-07       2.282787728796e-03       5.340602219243e-06 
   14       7.962534891963e+02       1.206987831976e-02       0.000000000000e+00       1.102796250190e+00       1.210389071209e-07       2.202793490360e-03       5.234526040583e-06 
   15       8.031524866165e+02       1.076958849968e-02       0.000000000000e+00       1.085895905365e+00       1.236599088575e-07       2.125030609055e-03       4.244713770431e-06 
   16       8.114616714957e+02       9.353515169649e-03       0.000000000000e+00       1.126317355659e+00       1.260093032521e-07       2.052138613319e-03       2.666031268269e-06 
   17       8.206811561007e+02       8.440078833238e-03       0.000000000000e+00       1.200956934685e+00       1.281138472901e-07       1.984623446770e-03       8.107225883185e-07 
   18       8.308086798781e+02       8.306128859109e-03       0.000000000000e+00       1.289550869521e+00       1.299468856276e-07       1.921139239062e-03      -1.023385273108e-06 
   19       8.418611316028e+02       8.779596352149e-03       0.000000000000e+00       1.378688432937e+00       1.316793946132e-07       1.863335758437e-03      -2.615289230174e-06 
   20       8.533971825078e+02       9.483485228613e-03       0.000000000000e+00       1.455430369620e+00       1.331708777314e-07       1.808816411253e-03      -3.776620018621e-06 
   21       8.654677835501e+02       1.014029667285e-02       0.000000000000e+00       1.515435141077e+00       1.345095474301e-07       1.756567709406e-03      -4.420038463729e-06 
   22       8.780508071592e+02       1.052479673581e-02       0.000000000000e+00       1.557960589955e+00       1.356704587572e-07       1.703747395582e-03      -4.547726599132e-06 
   23       8.910987494109e+02       1.073533645930e-02       0.000000000000e+00       1.584949543838e+00       1.367243593705e-07       1.652386169276e-03      -4.214511693279e-06 
   24       9.044261052745e+02       1.100525613511e-02       0.000000000000e+00       1.600254041600e+00       1.376225128762e-07       1.604825569234e-03      -3.546375167761e-06 
   25       9.181294775535e+02       1.153392821849e-02       0.000000000000e+00       1.608700046333e+00       1.384195763116e-07       1.561502070180e-03      -2.673183478442e-06 
   26       9.322589564017e+02       1.249577586788e-02       0.000000000000e+00       1.615924874485e+00       1.390934642793e-07       1.520642531851e-03      -1.759247950936e-06 
   27       9.466926486270e+02       1.388844021943e-02       0.000000000000e+00       1.626011686057e+00       1.396717305588e-07       1.480774771119e-03      -9.400501914948e-07 
   28       9.612034658667e+02       1.564293200263e-02       0.000000000000e+00       1.642271060171e+00       1.401186368534e-07       1.439898286258e-03      -3.436311621837e-07 
   29       9.758535073844e+02       1.771208926698e-02       0.000000000000e+00       1.665177240335e+00       1.405078941075e-07       1.399229302036e-03      -1.795143589670e-08 
   30       9.907254979833e+02       2.003924641946e-02       0.000000000000e+00       1.693886833851e+00       1.408596783354e-07       1.360740539906e-03       3.106350060215e-08 
   31       1.005830857250e+03       2.256253390069e-02       0.000000000000e+00       1.726704569903e+00       1.410928250094e-07       1.325788395397e-03      -1.762050273890e-07 
   32       1.021193705848e+03       2.527798318831e-02       0.000000000000e+00       1.760585423321e+00       1.412524501312e-07       1.294494322611e-03      -5.911897203361e-07 
   33       1.036779607314e+03       2.819953795317e-02       0.000000000000e+00       1.791300120240e+00       1.413674528558e-07       1.265682042635e-03      -1.128632169509e-06 
   34       1.052508003822e+03       3.133451141747e-02       0.000000000000e+00       1.814126622866e+00       1.414016557499e-07       1.237445676960e-03      -1.678872316696e-06 
   35       1.068407154951e+03       3.465453014895e-02       0.000000000000e+00       1.826115692992e+00       1.413871113739e-07       1.209673096578e-03      -2.175151819965e-06 
   36       1.084501517411e+03       3.811359271527e-02       0.000000000000e+00       1.824550153023e+00       1.413304327598e-07       1.182500980729e-03      -2.553708195857e-06 
   37       1.100782342158e+03       4.167145388307e-02       0.000000000000e+00       1.806968564110e+00       1.411920036598e-07       1.155794196103e-03      -2.751237710485e-06 
   38       1.117266865532e+03       4.535000674682e-02       0.000000000000e+00       1.773374941942e+00       1.410103912848e-07       1.129825819217e-03      -2.761360259659e-06 
   39       1.133950410334e+03       4.919589316293e-02       0.000000000000e+00       1.724779663780e+00       1.408216078301e-07       1.104790016611e-03      -2.605184176282e-06 
   40       1.150784968915e+03       5.326630274332e-02       0.000000000000e+00       1.662647625715e+00       1.406124213161e-07       1.080555958772e-03      -2.320143449178e-06 
   41       1.167708389656e+03       5.761723425309e-02       0.000000000000e+00       1.588666075061e+00       1.403356761470e-07       1.056809568705e-03      -1.956108022530e-06 
   42       1.184753825937e+03       6.226201155361e-02       0.000000000000e+00       1.503882476924e+00       1.400140476282e-07       1.033733910971e-03      -1.555113680338e-06 
   43       1.201968590912e+03       6.720043416000e-02       0.000000000000e+00       1.409338320024e+00       1.396729977170e-07       1.011542317235e-03      -1.165998702038e-06 
   44       1.219381684585e+03       7.242988973866e-02       0.000000000000e+00       1.306320902432e+00       1.393050448189e-07       9.902635717966e-04      -8.513782193763e-07 
   45       1.237005512092e+03       7.794613383328e-02       0.000000000000e+00       1.195974247256e+00       1.388821177709e-07       9.698094601858e-04      -6.727800550733e-07 
   46       1.254846484805e+03       8.374628620610e-02       0.000000000000e+00       1.077962831809e+00       1.384285164866e-07       9.503040408493e-04      -6.341686057058e-07 
   47       1.272894099354e+03       8.982645656959e-02       0.000000000000e+00       9.514302432716e-01       1.379726383299e-07       9.318378602988e-04      -7.160740841059e-07 
   48       1.291115656766e+03       9.618077775057e-02       0.000000000000e+00       8.153564214066e-01       1.375225009943e-07       9.143535055893e-04      -8.887117120812e-07 
   49       1.309454428349e+03       1.028012989520e-01       0.000000000000e+00       6.685473711594e-01       1.370595549065e-07       8.976206643020e-04      -1.110700282673e-06 
   50       1.327853329438e+03       1.096801615765e-01       0.000000000000e+00       5.097893737598e-01       1.365507645963e-07       8.813334292857e-04      -1.336170146237e-06 
   51       1.346337771394e+03       1.168170705919e-01       0.000000000000e+00       3.383848343615e-01       1.360102478850e-07       8.655132399944e-04      -1.542801619896e-06 
   52       1.364952128459e+03       1.242136666803e-01       0.000000000000e+00       1.537441017784e-01       1.354582721648e-07       8.502223703957e-04      -1.712745953057e-06 
   53       1.383735576743e+03       1.318714215865e-01       0.000000000000e+00      -4.476880349551e-02       1.349018435958e-07       8.354426226465e-04      -1.824873546592e-06 
   54       1.402721460482e+03       1.397916387943e-01       0.000000000000e+00      -2.578387355841e-01       1.343310680797e-07       8.210628532166e-04      -1.854494413388e-06 
   55       1.421934769819e+03       1.479752651756e-01       0.000000000000e+00      -4.859857061088e-01       1.337276133276e-07       8.069372738587e-04      -1.781085770776e-06 
   56       1.441385292282e+03       1.564222695916e-01       0.000000000000e+00      -7.288557272362e-01       1.331051039977e-07       7.931173003873e-04      -1.615573582385e-06 
   57       1.461071649926e+03       1.651321111074e-01       0.000000000000e+00      -9.857582588605e-01       1.324812469136e-07       7.796820763512e-04      -1.382579538330e-06 
   58       1.480982346810e+03       1.741039079524e-01       0.000000000000e+00      -1.255861285516e+00       1.318650294203e-07       7.666684050779e-04      -1.113892220383e-06 
   59       1.501095061667e+03       1.833364308324e-01       0.000000000000e+00      -1.538185436826e+00       1.312544815513e-07       7.540643171297e-04      -8.491432646152e-07 
   60       1.521375940581e+03       1.928280962407e-01       0.000000000000e+00      -1.831598107958e+00       1.306342338739e-07       7.418023582579e-04      -6.365075096401e-07 
   61       1.541792146856e+03       2.025769532746e-01       0.000000000000e+00      -2.135069828905e+00       1.299836883489e-07       7.297954058022e-04      -5.213130218596e-07 
   62       1.562354402566e+03       2.125806557564e-01       0.000000000000e+00      -2.448523918037e+00       1.293123910288e-07       7.180748012587e-04      -5.056418260841e-07 
   63       1.583082784205e+03       2.228364719576e-01       0.000000000000e+00      -2.772167976977e+00       1.286355187924e-07       7.066859540335e-04      -5.765081196889e-07 
   64       1.603994027104e+03       2.333412837844e-01       0.000000000000e+00      -3.106250863776e+00       1.279632624181e-07       6.956459531872e-04      -7.164338977034e-07 
   65       1.625101238740e+03       2.440915798834e-01       0.000000000000e+00      -3.451065134316e+00       1.272995927546e-07       6.849397978408e-04      -9.030408746369e-07 
   66       1.646413612055e+03       2.550834487472e-01       0.000000000000e+00      -3.806949483718e+00       1.266409231695e-07       6.745164805949e-04      -1.108628891008e-06 
   67       1.667936138771e+03       2.663125718199e-01       0.000000000000e+00      -4.174291187752e+00       1.259746649715e-07       6.642849239669e-04      -1.299740804578e-06 
   68       1.689672076359e+03       2.777739751977e-01       0.000000000000e+00      -4.553427242044e+00       1.252854706784e-07       6.541486935578e-04      -1.444745815012e-06 
   69       1.711631570248e+03       2.894612417172e-01       0.000000000000e+00      -4.944319061066e+00       1.245806836942e-07       6.441322499730e-04      -1.540328719215e-06 
   70       1.733824271715e+03       3.013671260966e-01       0.000000000000e+00      -5.346815947598e+00       1.238722291532e-07       6.342852537611e-04      -1.592196994272e-06 
   71       1.756256526433e+03       3.134837693806e-01       0.000000000000e+00      -5.760750416074e+00       1.231690493833e-07       6.246453749242e-04      -1.607877173921e-06 
   72       1.778931158205e+03       3.258026858722e-01       0.000000000000e+00      -6.185938043141e+00       1.224764147664e-07       6.152366553841e-04      -1.596864428830e-06 
   73       1.801847252711e+03       3.383147500640e-01       0.000000000000e+00      -6.622177318217e+00       1.217951819734e-07       6.060678116616e-04      -1.570776625114e-06 
   74       1.824999941244e+03       3.510101835701e-01       0.000000000000e+00      -7.069249494053e+00       1.211209980545e-07       5.971304777708e-04      -1.543512861084e-06 
   75       1.848380184453e+03       3.638785420570e-01       0.000000000000e+00      -7.526918437289e+00       1.204434488671e-07       5.883973883276e-04      -1.531416482235e-06 
   76       1.871978506917e+03       3.769094198718e-01       0.000000000000e+00      -7.994926689764e+00       1.197506652997e-07       5.798372894422e-04      -1.549493077073e-06 
   77       1.895797465129e+03       3.900947411537e-01       0.000000000000e+00      -8.472983153604e+00       1.190472533991e-07       5.714687010295e-04      -1.598478577030e-06 
   78       1.919841070776e+03       4.034268647161e-01       0.000000000000e+00      -8.960772878514e+00       1.183411523069e-07       5.633173667746e-04      -1.674556519495e-06 
   79       1.944110908544e+03       4.168979050364e-01       0.000000000000e+00      -9.457960428332e+00       1.176382989493e-07       5.553997528821e-04      -1.772937403526e-06 
   80       1.968606000878e+03       4.304997339050e-01       0.000000000000e+00      -9.964189653887e+00       1.169422265646e-07       5.477220190062e-04      -1.887788423675e-06 
   81       1.993322672736e+03       4.442239820731e-01       0.000000000000e+00      -1.047908346586e+01       1.162536359144e-07       5.402789563954e-04      -2.012161329939e-06 
   82       2.018254416349e+03       4.580620409020e-01       0.000000000000e+00      -1.100224360762e+01       1.155699384706e-07       5.330528932508e-04      -2.137918413842e-06 
   83       2.043391755969e+03       4.720050640110e-01       0.000000000000e+00      -1.153325042812e+01       1.148847708742e-07       5.260125672993e-04      -2.255656620643e-06 
   84       2.068725882003e+03       4.860433443374e-01       0.000000000000e+00      -1.207169024253e+01       1.141910520423e-07       5.191251257205e-04      -2.356673960198e-06 
   85       2.094260541846e+03       5.001643230501e-01       0.000000000000e+00      -1.261724312328e+01       1.134925312961e-07       5.123981948990e-04      -2.439609901117e-06 
   86       2.120001881496e+03       5.143542520435e-01       0.000000000000e+00      -1.316960931416e+01       1.127950718444e-07       5.058460954353e-04      -2.505306420032e-06 
   87       2.145954780617e+03       5.285987804604e-01       0.000000000000e+00      -1.372848316951e+01       1.121031750470e-07       4.994770152271e-04      -2.554927699514e-06 
   88       2.172122780645e+03       5.428829458427e-01       0.000000000000e+00      -1.429355339077e+01       1.114197356827e-07       4.932924130719e-04      -2.589982819261e-06 
   89       2.198508012893e+03       5.571911652830e-01       0.000000000000e+00      -1.486450326298e+01       1.107457821596e-07       4.872864051906e-04      -2.612349012931e-06 
   90       2.225111126662e+03       5.715072265755e-01       0.000000000000e+00      -1.544101089132e+01       1.100802013170e-07       4.814451346689e-04      -2.624295490609e-06 
   91       2.251931217343e+03       5.858142793675e-01       0.000000000000e+00      -1.602274943758e+01       1.094194474656e-07       4.757461238198e-04      -2.628507826914e-06 
   92       2.278965754526e+03       6.000948263103e-01       0.000000000000e+00      -1.660938735674e+01       1.087572353126e-07       4.701576094646e-04      -2.628112914743e-06 
   93       2.306211840967e+03       6.143319545053e-01       0.000000000000e+00      -1.720057566873e+01       1.080871288937e-07       4.646488360718e-04      -2.626009123294e-06 
   94       2.333670362249e+03       6.285132609235e-01       0.000000000000e+00      -1.779590707028e+01       1.074119515531e-07       4.592251291037e-04      -2.622625889586e-06 
   95       2.361342331212e+03       6.426275037559e-01       0.000000000000e+00      -1.839495108222e+01       1.067365738554e-07       4.538994427780e-04      -2.617707712767e-06 
   96       2.389227559792e+03       6.566634227902e-01       0.000000000000e+00      -1.899726652394e+01       1.060651176278e-07       4.486818030549e-04      -2.610963807815e-06 
   97       2.417324605396e+03       6.706097475869e-01       0.000000000000e+00      -1.960240157205e+01       1.054008238125e-07       4.435790288107e-04      -2.602066026671e-06 
   98       2.445630717283e+03       6.844552056560e-01       0.000000000000e+00      -2.020989381884e+01       1.047459128173e-07       4.385944456003e-04      -2.590646732482e-06 
   99       2.474141782930e+03       6.981885306339e-01       0.000000000000e+00      -2.081927033087e+01       1.041014372000e-07       4.337275920056e-04      -2.576296626948e-06 
  100       2.502852274415e+03       7.117984704592e-01       0.000000000000e+00      -2.143004770754e+01       1.034671265284e-07       4.289739185713e-04      -2.558562530779e-06 
  101       2.531755194786e+03       7.252737955498e-01       0.000000000000e+00      -2.204173213961e+01       1.028412242534e-07       4.243244793290e-04      -2.536945117267e-06 
  102       2.560842024443e+03       7.386033069792e-01       0.000000000000e+00      -2.265381946778e+01       1.022203164348e-07       4.197656159065e-04      -2.510896598957e-06 
  103       2.590102667505e+03       7.517758446531e-01       0.000000000000e+00      -2.326579524123e+01       1.015991521597e-07       4.152786342262e-04      -2.479818367433e-06 
  104       2.619527591518e+03       7.647800330996e-01       0.000000000000e+00      -2.387714060038e+01       1.009725883625e-07       4.108458348488e-04      -2.443257223518e-06 
  105       2.649114691242e+03       7.776034621202e-01       0.000000000000e+00      -2.448735070415e+01       1.003424543384e-07       4.064707329963e-04      -2.401544894269e-06 
  106       2.678863256404e+03       7.902334101846e-01       0.000000000000e+00      -2.509591891273e+01       9.971217167041e-08       4.021613063041e-04      -2.355283198560e-06 
  107       2.708771832001e+03       8.026571021631e-01       0.000000000000e+00      -2.570233130670e+01       9.908471166262e-08       3.979238528199e-04      -2.305160724260e-06 
