# total lensed [l(l+1)/2pi] C_l's (units: [microK]^2)
# for l=2 to 2500, i.e. number of multipoles equal to 2499
#
# -> if you don't want to see such a header, set 'headers' to 'no' in input file
# -> for CMB lensing (d), these are C_l^dd for the deflection field.
#    Remember the conversion factors:
#    C_l^dd (deflection) = l(l+1) C_l^phi-phi
#    C_l^gg (shear/convergence) = 1/4 (l(l+1))^2 C_l^phi-phi
#
# 1:l     2:TT                     3:EE                     4:BB                     5:TE                     6:dd                     7:dT                     8:dE                 
    2       1.073195465003e+03       6.316738606705e-02       1.628650149735e-06       3.718507847570e+00       4.943592811505e-08       3.208432160451e-03      -1.743022952363e-05 
    3       1.007971482879e+03       1.145801853622e-01       3.259492506810e-06       4.854924635862e+00       6.140335165788e-08       3.239588587348e-03      -2.246280649091e-05 
    4       9.438978050134e+02       1.436773564649e-01       5.437275414449e-06       5.179888287184e+00       7.129652731928e-08       3.183702541157e-03      -2.407331368042e-05 
    5       8.928089972784e+02       1.437146847316e-01       8.164692235324e-06       4.988350348049e+00       7.990724953389e-08       3.095390017576e-03      -2.301141866144e-05 
    6       8.545101481033e+02       1.209578736749e-01       1.144491988895e-05       4.506083541645e+00       8.746558381703e-08       2.992590741138e-03      -1.991147366630e-05 
    7       8.268157069323e+02       8.789374803804e-02       1.528150372207e-05       3.895377033865e+00       9.410991906718e-08       2.884071814005e-03      -1.549039472787e-05 
    8       8.080658523037e+02       5.623141287015e-02       1.967823013808e-05       3.257149752072e+00       9.998608733628e-08       2.774810190483e-03      -1.046931449545e-05 
    9       7.959145458620e+02       3.296708452648e-02       2.463899212446e-05       2.655313841269e+00       1.052449159936e-07       2.667531032932e-03      -5.510982188104e-06 
   10       7.892487600498e+02       1.969675419713e-02       3.016765309773e-05       2.130685634523e+00       1.100108593513e-07       2.564069630414e-03      -1.157795068910e-06 
   11       7.868374243376e+02       1.421667731826e-02       3.626791454449e-05       1.707666587397e+00       1.112144072759e-07       2.470865417970e-03       2.180064061582e-06 
   12       7.874486338012e+02       1.292077894619e-02       4.294319277286e-05       1.398029888830e+00       1.148568053678e-07       2.373753578148e-03       4.362308477681e-06 
   13       7.909221517007e+02       1.275457558761e-02       5.019650970697e-05       1.200486857975e+00       1.181165322876e-07       2.282787728796e-03       5.340602219243e-06 
   14       7.963603502535e+02       1.212791181675e-02       5.803040207378e-05       1.102749509952e+00       1.210389071209e-07       2.202793490360e-03       5.234526040583e-06 
   15       8.032736209117e+02       1.083603916045e-02       6.644685257043e-05       1.085836487523e+00       1.236599088575e-07       2.125030609055e-03       4.244713770431e-06 
   16       8.115978083795e+02       9.428966753247e-03       7.544724569148e-05       1.126243171424e+00       1.260093032521e-07       2.052138613319e-03       2.666031268269e-06 
   17       8.208329987296e+02       8.525115621683e-03       8.503234987702e-05       1.200865775554e+00       1.281138472901e-07       1.984623446770e-03       8.107225883185e-07 
   18       8.309769072418e+02       8.401334932621e-03       9.520231359583e-05       1.289440420382e+00       1.299468856276e-07       1.921139239062e-03      -1.023385273108e-06 
   19       8.420464004940e+02       8.885554935747e-03       1.059567655403e-04       1.378556281286e+00       1.316793946132e-07       1.863335758437e-03      -2.615289230174e-06 
   20       8.536001299154e+02       9.600777948817e-03       1.172947331986e-04       1.455274017560e+00       1.331708777314e-07       1.808816411253e-03      -3.776620018621e-06 
   21       8.656890284628e+02       1.026950304626e-02       1.292149144523e-04       1.515252008113e+00       1.345095474301e-07       1.756567709406e-03      -4.420038463729e-06 
   22       8.782909528417e+02       1.066649355225e-02       1.417155792924e-04       1.557748019201e+00       1.356704587572e-07       1.703747395582e-03      -4.547726599132e-06 
   23       8.913583848428e+02       1.089009745257e-02       1.547948901414e-04       1.584704798831e+00       1.367243593705e-07       1.652386169276e-03      -4.214511693279e-06 
   24       9.047058070674e+02       1.117365154685e-02       1.684508032632e-04       1.599974306564e+00       1.376225128762e-07       1.604825569234e-03      -3.546375167761e-06 
   25       9.184298107355e+02       1.171652470934e-02       1.826814399150e-04       1.608382417633e+00       1.384195763116e-07       1.561502070180e-03      -2.673183478442e-06 
   26       9.325804757935e+02       1.269313629639e-02       1.974849649376e-04       1.615566355612e+00       1.390934642793e-07       1.520642531851e-03      -1.759247950936e-06 
   27       9.470358991372e+02       1.410112373161e-02       2.128599115705e-04       1.625609176688e+00       1.396717305588e-07       1.480774771119e-03      -9.400501914948e-07 
   28       9.615689831639e+02       1.587149403587e-02       2.288051053996e-04       1.641821348527e+00       1.401186368534e-07       1.439898286258e-03      -3.436311621837e-07 
   29       9.762418169037e+02       1.795708193499e-02       2.453200336501e-04       1.664676995297e+00       1.405078941075e-07       1.399229302036e-03      -1.795143589670e-08 
   30       9.911371151461e+02       2.030121866636e-02       2.624046478712e-04       1.693332596877e+00       1.408596783354e-07       1.360740539906e-03       3.106350060215e-08 
   31       1.006266287608e+03       2.284203165160e-02       2.800593659018e-04       1.726092750767e+00       1.410928250094e-07       1.325788395397e-03      -1.762050273890e-07 
   32       1.021653443209e+03       2.557554978490e-02       2.982853096600e-04       1.759912310618e+00       1.412524501312e-07       1.294494322611e-03      -5.911897203361e-07 
   33       1.037264133009e+03       2.851571448371e-02       3.170842528510e-04       1.790561881817e+00       1.413674528558e-07       1.265682042635e-03      -1.128632169509e-06 
   34       1.053017786131e+03       3.166983697380e-02       3.364585583896e-04       1.813319311202e+00       1.414016557499e-07       1.237445676960e-03      -1.678872316696e-06 
   35       1.068942647575e+03       3.500954192928e-02       3.564109703377e-04       1.825235282331e+00       1.413871113739e-07       1.209673096578e-03      -2.175151819965e-06 
   36       1.085063158388e+03       3.848882629658e-02       3.769448394830e-04       1.823592556351e+00       1.413304327598e-07       1.182500980729e-03      -2.553708195857e-06 
   37       1.101370553058e+03       4.206744331461e-02       3.980639644752e-04       1.805929658355e+00       1.411920036598e-07       1.155794196103e-03      -2.751237710485e-06 
   38       1.117882051133e+03       4.576728375427e-02       4.197716823154e-04       1.772250648312e+00       1.410103912848e-07       1.129825819217e-03      -2.761360259659e-06 
   39       1.134592957798e+03       4.963498699054e-02       4.420715392980e-04       1.723565993559e+00       1.408216078301e-07       1.104790016611e-03      -2.605184176282e-06 
   40       1.151455246725e+03       5.372774025626e-02       4.649675711263e-04       1.661340713676e+00       1.406124213161e-07       1.080555958772e-03      -2.320143449178e-06 
   41       1.168406747078e+03       5.810153959263e-02       4.884638869905e-04       1.587262231784e+00       1.403356761470e-07       1.056809568705e-03      -1.956108022530e-06 
   42       1.185480594556e+03       6.276970423459e-02       5.125631904825e-04       1.502378300673e+00       1.400140476282e-07       1.033733910971e-03      -1.555113680338e-06 
   43       1.202724084604e+03       6.773202824774e-02       5.372678251356e-04       1.407730771630e+00       1.396729977170e-07       1.011542317235e-03      -1.165998702038e-06 
   44       1.220166198867e+03       7.298589343197e-02       5.625801752469e-04       1.304607367834e+00       1.393050448189e-07       9.902635717966e-04      -8.513782193763e-07 
   45       1.237819324266e+03       7.852704856405e-02       5.885022554211e-04       1.194152604543e+00       1.388821177709e-07       9.698094601858e-04      -6.727800550733e-07 
   46       1.255689856942e+03       8.435260415181e-02       6.150343382716e-04       1.076031526122e+00       1.384285164866e-07       9.503040408493e-04      -6.341686057058e-07 
   47       1.273767279197e+03       9.045865925277e-02       6.421759125604e-04       9.493883614176e-01       1.379726383299e-07       9.318378602988e-04      -7.160740841059e-07 
   48       1.292018877849e+03       9.683933502446e-02       6.699260306194e-04       8.132037683341e-01       1.375225009943e-07       9.143535055893e-04      -8.887117120812e-07 
   49       1.310387910103e+03       1.034866679441e-01       6.982832825530e-04       6.662845495821e-01       1.370595549065e-07       8.976206643020e-04      -1.110700282673e-06 
   50       1.328817277703e+03       1.103927854957e-01       7.272457061891e-04       5.074178409409e-01       1.365507645963e-07       8.813334292857e-04      -1.336170146237e-06 
   51       1.347332380257e+03       1.175573771806e-01       7.568105479623e-04       3.359068757436e-01       1.360102478850e-07       8.655132399944e-04      -1.542801619896e-06 
   52       1.365977581111e+03       1.249820668518e-01       7.869743925340e-04       1.511628706506e-01       1.354582721648e-07       8.502223703957e-04      -1.712745953057e-06 
   53       1.384792045991e+03       1.326683081041e-01       8.177331932347e-04      -4.744922042001e-02       1.349018435958e-07       8.354426226465e-04      -1.824873546592e-06 
   54       1.403809109268e+03       1.406173849034e-01       8.490822432447e-04      -2.606132506582e-01       1.343310680797e-07       8.210628532166e-04      -1.854494413388e-06 
   55       1.423053751016e+03       1.488302239226e-01       8.810166982410e-04      -4.888482142279e-01       1.337276133276e-07       8.069372738587e-04      -1.781085770776e-06 
   56       1.442535746080e+03       1.573067755120e-01       9.135333624095e-04      -7.317992615321e-01       1.331051039977e-07       7.931173003873e-04      -1.615573582385e-06 
   57       1.462253703053e+03       1.660464800519e-01       9.466292956357e-04      -9.887750135758e-01       1.324812469136e-07       7.796820763512e-04      -1.382579538330e-06 
   58       1.482196112426e+03       1.750484362138e-01       9.803012937336e-04      -1.258942589836e+00       1.318650294203e-07       7.666684050779e-04      -1.113892220383e-06 
   59       1.502340639248e+03       1.843113942536e-01       1.014545881112e-03      -1.541321728840e+00       1.312544815513e-07       7.540643171297e-04      -8.491432646152e-07 
   60       1.522653415788e+03       1.938337493059e-01       1.049359303437e-03      -1.834778908752e+00       1.306342338739e-07       7.418023582579e-04      -6.365075096401e-07 
   61       1.543101590041e+03       2.036135295907e-01       1.084738331867e-03      -2.138283757177e+00       1.299836883489e-07       7.297954058022e-04      -5.213130218596e-07 
   62       1.563695862892e+03       2.136483731126e-01       1.120682903267e-03      -2.451758836629e+00       1.293123910288e-07       7.180748012587e-04      -5.056418260841e-07 
   63       1.584456287141e+03       2.239355338076e-01       1.157194062302e-03      -2.775411037471e+00       1.286355187924e-07       7.066859540335e-04      -5.765081196889e-07 
   64       1.605399573119e+03       2.344718794367e-01       1.194273220214e-03      -3.109488514683e+00       1.279632624181e-07       6.956459531872e-04      -7.164338977034e-07 
   65       1.626538801942e+03       2.452538847181e-01       1.231922173239e-03      -3.454283130678e+00       1.272995927546e-07       6.849397978408e-04      -9.030408746369e-07 
   66       1.647883138776e+03       2.562776244600e-01       1.270143121021e-03      -3.810132898126e+00       1.266409231695e-07       6.745164805949e-04      -1.108628891008e-06 
   67       1.669437546086e+03       2.675387666927e-01       1.308938685031e-03      -4.177424422772e+00       1.259746649715e-07       6.642849239669e-04      -1.299740804578e-06 
   68       1.691205251023e+03       2.790323249695e-01       1.348311800479e-03      -4.556494005497e+00       1.252854706784e-07       6.541486935578e-04      -1.444745815012e-06 
   69       1.713196369060e+03       2.907518723385e-01       1.388265325470e-03      -4.947302217983e+00       1.245806836942e-07       6.441322499730e-04      -1.540328719215e-06 
   70       1.735420520647e+03       3.026901550318e-01       1.428802385373e-03      -5.349697472933e+00       1.238722291532e-07       6.342852537611e-04      -1.592196994272e-06 
   71       1.757884019263e+03       3.148393064112e-01       1.469926507222e-03      -5.763511384178e+00       1.231690493833e-07       6.246453749242e-04      -1.607877173921e-06 
   72       1.780589655121e+03       3.271908339417e-01       1.511641634892e-03      -6.188558617666e+00       1.224764147664e-07       6.152366553841e-04      -1.596864428830e-06 
   73       1.803536478857e+03       3.397356061642e-01       1.553952144288e-03      -6.624636742441e+00       1.217951819734e-07       6.060678116616e-04      -1.570776625114e-06 
   74       1.826719585233e+03       3.524638396684e-01       1.596862858515e-03      -7.071526081631e+00       1.211209980545e-07       5.971304777708e-04      -1.543512861084e-06 
   75       1.850129896826e+03       3.653650860664e-01       1.640379063066e-03      -7.528989563432e+00       1.204434488671e-07       5.883973883276e-04      -1.531416482235e-06 
   76       1.873757901022e+03       3.784289356667e-01       1.684505473591e-03      -7.996768727603e+00       1.197506652997e-07       5.798372894422e-04      -1.549493077073e-06 
   77       1.897606125871e+03       3.916473054384e-01       1.729242888346e-03      -8.474571233632e+00       1.190472533991e-07       5.714687010295e-04      -1.598478577030e-06 
   78       1.921678556850e+03       4.050125465394e-01       1.774590950045e-03      -8.962080793312e+00       1.183411523069e-07       5.633173667746e-04      -1.674556519495e-06 
   79       1.945976752350e+03       4.185167662707e-01       1.820549132918e-03      -9.458960588973e+00       1.176382989493e-07       5.553997528821e-04      -1.772937403526e-06 
   80       1.970499708432e+03       4.321518297462e-01       1.867116736416e-03      -9.964853045634e+00       1.169422265646e-07       5.477220190062e-04      -1.887788423675e-06 
   81       1.995243723596e+03       4.459093615617e-01       1.914292878908e-03      -1.047937960316e+01       1.162536359144e-07       5.402789563954e-04      -2.012161329939e-06 
   82       2.020202263536e+03       4.597807474650e-01       1.962076491388e-03      -1.100214048838e+01       1.155699384706e-07       5.330528932508e-04      -2.137918413842e-06 
   83       2.045365825904e+03       4.737571360253e-01       2.010466311176e-03      -1.153271448730e+01       1.148847708742e-07       5.260125672993e-04      -2.255656620643e-06 
   84       2.070725574573e+03       4.878288157790e-01       2.059461012566e-03      -1.207068638254e+01       1.141910520423e-07       5.191251257205e-04      -2.356673960198e-06 
   85       2.096285230897e+03       5.019832243721e-01       2.109059637455e-03      -1.261573499119e+01       1.134925312961e-07       5.123981948990e-04      -2.439609901117e-06 
   86       2.122050914983e+03       5.162066109024e-01       2.159261224888e-03      -1.316755937190e+01       1.127950718444e-07       5.058460954353e-04      -2.505306420032e-06 
   87       2.148027480637e+03       5.304846224022e-01       2.210064676523e-03      -1.372585269078e+01       1.121031750470e-07       4.994770152271e-04      -2.554927699514e-06 
   88       2.174218443478e+03       5.448022950114e-01       2.261468752635e-03      -1.429030245850e+01       1.114197356827e-07       4.932924130719e-04      -2.589982819261e-06 
   89       2.200625909051e+03       5.591440451512e-01       2.313472068118e-03      -1.486059076745e+01       1.107457821596e-07       4.872864051906e-04      -2.612349012931e-06 
   90       2.227250500944e+03       5.734936606973e-01       2.366073088493e-03      -1.543639452881e+01       1.100802013170e-07       4.814451346689e-04      -2.624295490609e-06 
   91       2.254091288901e+03       5.878342921532e-01       2.419270125907e-03      -1.601738570967e+01       1.094194474656e-07       4.757461238198e-04      -2.628507826914e-06 
   92       2.281145716939e+03       6.021484438239e-01       2.473061335142e-03      -1.660323157016e+01       1.087572353126e-07       4.701576094646e-04      -2.628112914743e-06 
   93       2.308410860033e+03       6.164192081215e-01       2.527445959873e-03      -1.719358204223e+01       1.080871288937e-07       4.646488360718e-04      -2.626009123294e-06 
   94       2.335887566539e+03       6.306342000080e-01       2.582428294553e-03      -1.778802917962e+01       1.074119515531e-07       4.592251291037e-04      -2.622625889586e-06 
   95       2.363576808779e+03       6.447822007273e-01       2.638014313779e-03      -1.838614201918e+01       1.067365738554e-07       4.538994427780e-04      -2.617707712767e-06 
   96       2.391478357058e+03       6.588519755247e-01       2.694210488119e-03      -1.898747895559e+01       1.060651176278e-07       4.486818030549e-04      -2.610963807815e-06 
   97       2.419590726006e+03       6.728322818845e-01       2.751023797278e-03      -1.959158780197e+01       1.054008238125e-07       4.435790288107e-04      -2.602066026671e-06 
   98       2.447911120937e+03       6.867118777683e-01       2.808461743264e-03      -2.019800585048e+01       1.047459128173e-07       4.385944456003e-04      -2.590646732482e-06 
   99       2.476435384195e+03       7.004795298519e-01       2.866532363551e-03      -2.080625993294e+01       1.041014372000e-07       4.337275920056e-04      -2.576296626948e-06 
  100       2.505157941510e+03       7.141240217633e-01       2.925244244251e-03      -2.141586648144e+01       1.034671265284e-07       4.289739185713e-04      -2.558562530779e-06 
  101       2.534071748347e+03       7.276341623204e-01       2.984606533275e-03      -2.202633158893e+01       1.028412242534e-07       4.243244793290e-04      -2.536945117267e-06 
  102       2.563168236260e+03       7.409987937686e-01       3.044628953500e-03      -2.263715106988e+01       1.022203164348e-07       4.197656159065e-04      -2.510896598957e-06 
  103       2.592437259240e+03       7.542068000184e-01       3.105321815936e-03      -2.324781052082e+01       1.015991521597e-07       4.152786342262e-04      -2.479818367433e-06 
  104       2.621869236721e+03       7.672468512107e-01       3.166694735728e-03      -2.385779110321e+01       1.009725883625e-07       4.108458348488e-04      -2.443257223518e-06 
  105       2.651462027822e+03       7.801065803713e-01       3.228752554252e-03      -2.446658765107e+01       1.003424543384e-07       4.064707329963e-04      -2.401544894269e-06 
  106       2.681214890023e+03       7.927733103743e-01       3.291498888136e-03      -2.507369313376e+01       9.971217167041e-08       4.021613063041e-04      -2.355283198560e-06 
  107       2.711126336279e+03       8.052343129579e-01       3.354937376156e-03      -2.567859327427e+01       9.908471166262e-08       3.979238528199e-04      -2.305160724260e-06 
