# Matter power spectrum P(k) at redshift z=0
# for k=1.02199e-05 to 157.883 h/Mpc,
# number of wavenumbers equal to 621
#    1:k (h/Mpc)              2:P (Mpc/h)^3        
       1.021990153461e-05       4.938867025312e+01 
       2.304766322696e-05       1.087147559919e+02 
       3.591967033303e-05       1.672263910467e+02 
       4.887026857119e-05       2.254883551742e+02 
       6.193436277247e-05       2.838392065544e+02 
       7.514772556132e-05       3.425441418502e+02 
       8.854731577167e-05       4.018380463818e+02 
       1.021716108034e-04       4.619433960578e+02 
       1.160609571561e-04       5.230797621704e+02 
       1.302579434116e-04       5.854698575386e+02 
       1.448077999425e-04       6.493440009982e+02 
       1.597588295745e-04       7.149437708303e+02 
       1.751628732594e-04       7.825253436915e+02 
       1.910758144757e-04       8.523626840205e+02 
       2.075581254497e-04       9.247506919290e+02 
       2.246754572787e-04       1.000008373211e+03 
       2.424992744649e-04       1.078481991421e+03 
       2.611075320323e-04       1.160548306644e+03 
       2.805853900439e-04       1.246617652471e+03 
       3.010259556396e-04       1.337136762416e+03 
       3.225310363277e-04       1.432591226606e+03 
       3.452118797839e-04       1.533507078043e+03 
       3.691898644859e-04       1.640451383628e+03 
       3.945970918655e-04       1.754030895360e+03 
       4.215768142925e-04       1.874888888760e+03 
       4.502836145627e-04       2.003698464797e+03 
       4.808832328544e-04       2.141152861087e+03 
       5.135519186674e-04       2.287951391998e+03 
       5.484751718379e-04       2.444781549308e+03 
       5.858457337954e-04       2.612297696442e+03 
       6.258607047688e-04       2.791098492359e+03 
       6.687177023102e-04       2.981705697514e+03 
       7.146100478170e-04       3.184548840507e+03 
       7.637210731543e-04       3.399959102468e+03 
       8.162177738455e-04       3.628176089723e+03 
       8.722441826919e-04       3.869363470371e+03 
       9.319149707642e-04       4.123628461632e+03 
       9.953098665184e-04       4.391027588513e+03 
       1.062469484743e-03       4.671547104121e+03 
       1.133393055498e-03       4.965048369534e+03 
       1.208038344349e-03       5.271192271567e+03 
       1.286323792712e-03       5.589371616887e+03 
       1.368132635326e-03       5.918667527241e+03 
       1.453318529121e-03       6.257978779390e+03 
       1.541712096984e-03       6.606105655353e+03 
       1.633127766872e-03       6.961869485627e+03 
       1.727370358159e-03       7.324196383835e+03 
       1.824241000771e-03       7.692099269460e+03 
       1.923542129990e-03       8.064604656755e+03 
       2.025081448336e-03       8.440700168596e+03 
       2.128674864882e-03       8.819355947469e+03 
       2.234148503789e-03       9.199607353574e+03 
       2.341339919165e-03       9.580627308089e+03 
       2.450098669803e-03       9.961732541287e+03 
       2.560286403452e-03       1.034232094619e+04 
       2.671776584491e-03       1.072181430085e+04 
       2.784453977465e-03       1.109964563369e+04 
       2.898213976418e-03       1.147530816945e+04 
       3.012961848941e-03       1.184838944842e+04 
       3.128611945711e-03       1.221856971651e+04 
       3.245086911396e-03       1.258557112964e+04 
       3.362316921101e-03       1.294911284671e+04 
       3.480238957666e-03       1.330894003644e+04 
       3.598796138561e-03       1.366483108510e+04 
       3.717937096467e-03       1.401662809192e+04 
       3.837615414407e-03       1.436421299447e+04 
       3.957789114155e-03       1.470746344304e+04 
       4.078420195286e-03       1.504626851783e+04 
       4.199474221492e-03       1.538051915386e+04 
       4.320919950372e-03       1.571014567729e+04 
       4.442729002825e-03       1.603510803068e+04 
       4.564875568225e-03       1.635536264423e+04 
       4.687336141746e-03       1.667088125199e+04 
       4.810089290443e-03       1.698161865838e+04 
       4.933115444969e-03       1.728755933202e+04 
       5.056396714095e-03       1.758869740945e+04 
       5.179916719470e-03       1.788504309995e+04 
       5.303660448329e-03       1.817659256654e+04 
       5.427614122116e-03       1.846335264931e+04 
       5.551765079193e-03       1.874532301833e+04 
       5.676101670029e-03       1.902253380383e+04 
       5.800613163454e-03       1.929499929006e+04 
       5.925289662708e-03       1.956277504794e+04 
       6.050122030191e-03       1.982585709398e+04 
       6.175101819915e-03       2.008427087587e+04 
       6.300221216822e-03       2.033805258213e+04 
       6.425472982176e-03       2.058724076811e+04 
       6.550850404390e-03       2.083186619132e+04 
       6.676347254670e-03       2.107197397635e+04 
       6.801957746966e-03       2.130757419314e+04 
       6.927676501768e-03       2.153871548175e+04 
       7.053498513337e-03       2.176543883036e+04 
       7.179419120001e-03       2.198778411281e+04 
       7.305433977213e-03       2.220578301811e+04 
       7.431539033072e-03       2.241947042925e+04 
       7.557730506065e-03       2.262890223840e+04 
       7.684004864795e-03       2.283410896929e+04 
       7.810358809513e-03       2.303512970013e+04 
       7.936789255257e-03       2.323201705682e+04 
       8.063293316455e-03       2.342480030606e+04 
       8.189868292842e-03       2.361351324523e+04 
       8.316511656575e-03       2.379821961257e+04 
       8.443221040416e-03       2.397895658680e+04 
       8.569994226905e-03       2.415575711278e+04 
       8.696829138410e-03       2.432866303933e+04 
       8.823723827990e-03       2.449771943704e+04 
       8.950676470987e-03       2.466295907423e+04 
       9.077685357290e-03       2.482443139370e+04 
       9.204748884203e-03       2.498217551647e+04 
       9.331865549871e-03       2.513622131280e+04 
       9.459033947211e-03       2.528661229552e+04 
       9.586252758311e-03       2.543338695302e+04 
       9.713520749249e-03       2.557658641922e+04 
       9.840836765303e-03       2.571624962275e+04 
       9.968199726519e-03       2.585240468682e+04 
       1.009560862360e-02       2.598510327934e+04 
       1.022306251412e-02       2.611436957026e+04 
       1.035056051897e-02       2.624025632573e+04 
       1.047810181909e-02       2.636278321213e+04 
       1.060568565247e-02       2.648200706475e+04 
       1.073331131127e-02       2.659797201958e+04 
       1.086097813924e-02       2.671064691513e+04 
       1.098868552930e-02       2.682014135161e+04 
       1.111643292121e-02       2.692647156305e+04 
       1.124421979954e-02       2.702966825171e+04 
       1.137204569168e-02       2.712979253290e+04 
       1.149991016602e-02       2.722680531256e+04 
       1.162781283025e-02       2.732082212854e+04 
       1.175575332981e-02       2.741183327320e+04 
       1.188373134639e-02       2.749988373587e+04 
       1.201174659660e-02       2.758502213124e+04 
       1.213979883069e-02       2.766725052063e+04 
       1.226788783136e-02       2.774663980335e+04 
       1.239601341267e-02       2.782319400971e+04 
       1.252417541906e-02       2.789695256434e+04 
       1.265237372432e-02       2.796798341184e+04 
       1.278060823082e-02       2.803621587807e+04 
       1.290887886860e-02       2.810182969068e+04 
       1.303718559470e-02       2.816475791286e+04 
       1.316552839239e-02       2.822507239004e+04 
       1.329390727059e-02       2.828278855206e+04 
       1.342232226325e-02       2.833794775833e+04 
       1.355077342880e-02       2.839053586708e+04 
       1.367926084968e-02       2.844064139631e+04 
       1.380778463183e-02       2.848827967826e+04 
       1.393634490432e-02       2.853352588740e+04 
       1.406494181898e-02       2.857628593900e+04 
       1.419357554999e-02       2.861665221034e+04 
       1.432224629364e-02       2.865471969990e+04 
       1.445095426803e-02       2.869042999316e+04 
       1.457969971280e-02       2.872389475482e+04 
       1.468298661025e-02       2.874903206071e+04 
       1.470848288897e-02       2.875499826669e+04 
       1.483730407870e-02       2.878392067024e+04 
       1.496616358516e-02       2.881053190794e+04 
       1.509506173239e-02       2.883511008032e+04 
       1.522399886518e-02       2.885743524899e+04 
       1.535297534902e-02       2.887768905368e+04 
       1.548199157001e-02       2.889580178837e+04 
       1.561104793481e-02       2.891184365987e+04 
       1.574014487067e-02       2.892584388141e+04 
       1.586928282540e-02       2.893782846820e+04 
       1.599846226740e-02       2.894783716255e+04 
       1.612768368572e-02       2.895590376260e+04 
       1.625694759011e-02       2.896195957601e+04 
       1.638625451113e-02       2.896614481132e+04 
       1.651560500020e-02       2.896842272846e+04 
       1.664499962978e-02       2.896882651339e+04 
       1.677443899348e-02       2.896739832782e+04 
       1.690392370622e-02       2.896415125573e+04 
       1.703345440442e-02       2.895909270032e+04 
       1.716303174615e-02       2.895229098296e+04 
       1.729265641139e-02       2.894373925812e+04 
       1.742232910222e-02       2.893347031187e+04 
       1.755205054309e-02       2.892148897812e+04 
       1.768182148104e-02       2.890787249752e+04 
       1.781164268602e-02       2.889259090879e+04 
       1.794151495116e-02       2.887568759765e+04 
       1.807143909306e-02       2.885719159859e+04 
       1.820141595215e-02       2.883710198714e+04 
       1.833144639302e-02       2.881546322437e+04 
       1.846153130477e-02       2.879228568264e+04 
       1.859167160139e-02       2.876762580617e+04 
       1.872186822217e-02       2.874148586829e+04 
       1.885212213207e-02       2.871383819022e+04 
       1.898243432218e-02       2.868478183127e+04 
       1.911280581016e-02       2.865432822767e+04 
       1.924323764070e-02       2.862248484549e+04 
       1.937373088599e-02       2.858921305819e+04 
       1.950428664623e-02       2.855457819694e+04 
       1.963490605012e-02       2.851866566887e+04 
       1.976559025546e-02       2.848141124293e+04 
       1.989634044962e-02       2.844288893651e+04 
       2.002715785019e-02       2.840307482816e+04 
       2.015804370553e-02       2.836205623819e+04 
       2.028899929537e-02       2.831977494329e+04 
       2.042002593152e-02       2.827629275113e+04 
       2.055112495843e-02       2.823164341610e+04 
       2.068229775394e-02       2.818578301799e+04 
       2.081354572996e-02       2.813882047262e+04 
       2.094487033316e-02       2.809077871215e+04 
       2.107627304577e-02       2.804157912788e+04 
       2.120775538633e-02       2.799127278640e+04 
       2.133931891046e-02       2.793996054090e+04 
       2.147096521172e-02       2.788756498970e+04 
       2.160269592242e-02       2.783414908851e+04 
       2.173451271451e-02       2.777974264567e+04 
       2.186641730051e-02       2.772436542443e+04 
       2.199841143438e-02       2.766797130138e+04 
       2.213049691251e-02       2.761065298038e+04 
       2.226267557473e-02       2.755242437463e+04 
       2.239494930526e-02       2.749325808291e+04 
       2.252732003385e-02       2.743317416548e+04 
       2.265978973679e-02       2.737226299921e+04 
       2.279236043806e-02       2.731045365236e+04 
       2.292503421050e-02       2.724787007239e+04 
       2.305781317693e-02       2.718438985596e+04 
       2.319069951147e-02       2.712016864933e+04 
       2.332369544073e-02       2.705504368715e+04 
       2.345680324515e-02       2.698931785606e+04 
       2.359002526033e-02       2.692272781228e+04 
       2.372336387843e-02       2.685542207218e+04 
       2.385682154961e-02       2.678741086693e+04 
       2.399040078348e-02       2.671863316725e+04 
       2.412410415065e-02       2.664925513585e+04 
       2.425793428428e-02       2.657915340885e+04 
       2.439189388177e-02       2.650837654674e+04 
       2.452598570634e-02       2.643699462163e+04 
       2.466021258884e-02       2.636496105928e+04 
       2.479457742952e-02       2.629228855585e+04 
       2.492908319987e-02       2.621910073374e+04 
       2.506373294453e-02       2.614527049590e+04 
       2.519852978328e-02       2.607088942883e+04 
       2.533347691305e-02       2.599599587015e+04 
       2.546857761006e-02       2.592044037953e+04 
       2.560383523198e-02       2.584445676145e+04 
       2.573925322021e-02       2.576796050711e+04 
       2.587483510215e-02       2.569096384017e+04 
       2.601058449368e-02       2.561347735210e+04 
       2.614650510161e-02       2.553550256517e+04 
       2.628260072627e-02       2.545709587674e+04 
       2.641887526420e-02       2.537823111334e+04 
       2.655533271087e-02       2.529891455985e+04 
       2.669197716360e-02       2.521929420637e+04 
       2.682881282447e-02       2.513916352573e+04 
       2.696584400343e-02       2.505864848631e+04 
       2.710307512146e-02       2.497773262376e+04 
       2.724051071386e-02       2.489648065485e+04 
       2.737815543371e-02       2.481487774416e+04 
       2.751601405538e-02       2.473295909208e+04 
       2.765409147818e-02       2.465067839753e+04 
       2.779239273026e-02       2.456814339150e+04 
       2.793092297246e-02       2.448516313521e+04 
       2.806968750251e-02       2.440202612856e+04 
       2.820869175924e-02       2.431852168878e+04 
       2.834794132702e-02       2.423481298882e+04 
       2.848744194036e-02       2.415076717777e+04 
       2.862719948873e-02       2.406649032552e+04 
       2.876722002145e-02       2.398194992932e+04 
       2.890750975294e-02       2.389722373671e+04 
       2.904807506802e-02       2.381223905205e+04 
       2.918892252757e-02       2.372711175970e+04 
       2.933005887430e-02       2.364167504278e+04 
       2.947149103882e-02       2.355611390159e+04 
       2.961322614595e-02       2.347035668108e+04 
       2.975527152130e-02       2.338437188933e+04 
       2.989763469809e-02       2.329832637260e+04 
       3.004032342432e-02       2.321207254993e+04 
       3.018334567019e-02       2.312564429934e+04 
       3.032670963587e-02       2.303909277070e+04 
       3.047042375961e-02       2.295237476441e+04 
       3.061449672617e-02       2.286556389396e+04 
       3.075893747571e-02       2.277848509912e+04 
       3.090375521293e-02       2.269167449353e+04 
       3.104895941679e-02       2.260456237814e+04 
       3.119455985057e-02       2.251730814425e+04 
       3.134056657238e-02       2.242991232038e+04 
       3.148698994625e-02       2.234255154836e+04 
       3.163384065360e-02       2.225509770724e+04 
       3.178112970544e-02       2.216753447555e+04 
       3.192886845495e-02       2.207997843112e+04 
       3.207706861078e-02       2.199233232057e+04 
       3.222574225102e-02       2.190462683217e+04 
       3.237490183775e-02       2.181688395922e+04 
       3.252456023241e-02       2.172911876369e+04 
       3.267473071189e-02       2.164131703504e+04 
       3.282542698542e-02       2.155333915582e+04 
       3.297666321238e-02       2.146560617304e+04 
       3.312845402098e-02       2.137769401442e+04 
       3.328081452792e-02       2.128988511953e+04 
       3.343376035908e-02       2.120192885891e+04 
       3.358730767137e-02       2.111411298787e+04 
       3.374147317564e-02       2.102608916828e+04 
       3.389627416097e-02       2.093826707382e+04 
       3.405172852015e-02       2.085045977442e+04 
       3.420785477672e-02       2.076259507677e+04 
       3.436467211342e-02       2.067475823802e+04 
       3.452220040230e-02       2.058708908038e+04 
       3.468046023655e-02       2.049927405513e+04 
       3.483947296418e-02       2.041143230259e+04 
       3.499926072369e-02       2.032377402675e+04 
       3.515984648182e-02       2.023607106851e+04 
       3.532125407360e-02       2.014829835604e+04 
       3.548350824485e-02       2.006082564231e+04 
       3.564663469726e-02       1.997310088268e+04 
       3.581066013628e-02       1.988557104106e+04 
       3.597561232207e-02       1.979814063040e+04 
       3.614152012365e-02       1.971073756746e+04 
       3.630841357660e-02       1.962333657525e+04 
       3.647632394449e-02       1.953588673191e+04 
       3.664528378439e-02       1.944852901835e+04 
       3.681532701685e-02       1.936124476797e+04 
       3.698648900052e-02       1.927415933352e+04 
       3.715880661202e-02       1.918685910092e+04 
       3.733231833132e-02       1.909978196629e+04 
       3.750706433322e-02       1.901248221599e+04 
       3.768308658539e-02       1.892547079022e+04 
       3.786042895346e-02       1.883842373398e+04 
       3.803913731402e-02       1.875147442981e+04 
       3.821925967596e-02       1.866453512130e+04 
       3.840084631110e-02       1.857771982011e+04 
       3.858394989484e-02       1.849072290369e+04 
       3.876862565786e-02       1.840383648669e+04 
       3.895493154985e-02       1.831706025204e+04 
       3.914292841644e-02       1.823029035302e+04 
       3.933268019063e-02       1.814346223278e+04 
       3.952425410017e-02       1.805674746609e+04 
       3.971772089244e-02       1.796991789439e+04 
       3.991315507864e-02       1.788325871127e+04 
       4.011063519937e-02       1.779642026030e+04 
       4.031024411370e-02       1.770966956015e+04 
       4.051206931443e-02       1.762283703204e+04 
       4.071620327224e-02       1.753612511538e+04 
       4.092274381207e-02       1.744919596163e+04 
       4.113179452526e-02       1.736235221158e+04 
       4.134346522164e-02       1.727542394333e+04 
       4.155787242617e-02       1.718846219282e+04 
       4.177513992559e-02       1.710144167682e+04 
       4.199539937092e-02       1.701431438328e+04 
       4.221879094291e-02       1.692711377171e+04 
       4.244546408837e-02       1.683985620504e+04 
       4.267557833632e-02       1.675245864752e+04 
       4.290930420467e-02       1.666491081100e+04 
       4.314682420933e-02       1.657726462298e+04 
       4.338833398991e-02       1.648938451511e+04 
       4.363404356815e-02       1.640146549977e+04 
       4.388417875799e-02       1.631323183138e+04 
       4.413898274943e-02       1.622481791576e+04 
       4.439871789197e-02       1.613618012012e+04 
       4.466366770790e-02       1.604728596807e+04 
       4.493413917136e-02       1.595809403034e+04 
       4.521046529525e-02       1.586867176476e+04 
       4.549300807636e-02       1.577886190174e+04 
       4.578216185826e-02       1.568866072297e+04 
       4.607835718341e-02       1.559811127484e+04 
       4.638206522027e-02       1.550709406325e+04 
       4.669380286826e-02       1.541560794154e+04 
       4.701413866573e-02       1.532361437045e+04 
       4.734369965211e-02       1.523107936550e+04 
       4.768317936936e-02       1.513786386766e+04 
       4.803334722879e-02       1.504403778983e+04 
       4.839505952194e-02       1.494942874545e+04 
       4.876927241943e-02       1.485405776163e+04 
       4.915705738470e-02       1.475778187386e+04 
       4.955961953476e-02       1.466048290082e+04 
       4.997831961341e-02       1.456216733655e+04 
       5.041470041260e-02       1.446261108556e+04 
       5.087051869482e-02       1.436172211864e+04 
       5.134778394525e-02       1.425937359647e+04 
       5.184880563337e-02       1.415534278606e+04 
       5.237625110498e-02       1.404943184754e+04 
       5.293321677358e-02       1.394136898098e+04 
       5.352331594320e-02       1.383091998697e+04 
       5.415078736033e-02       1.371760332997e+04 
       5.482062940088e-02       1.360104146837e+04 
       5.553876547933e-02       1.348065010990e+04 
       5.631224643709e-02       1.335571339352e+04 
       5.714949450648e-02       1.322523629010e+04 
       5.806058932370e-02       1.308811156775e+04 
       5.905758628195e-02       1.294259703051e+04 
       6.015483577658e-02       1.278669462523e+04 
