# total lensed [l(l+1)/2pi] C_l's (units: [microK]^2)
# for l=2 to 2500, i.e. number of multipoles equal to 2499
#
# -> if you don't want to see such a header, set 'headers' to 'no' in input file
# -> for CMB lensing (d), these are C_l^dd for the deflection field.
#    Remember the conversion factors:
#    C_l^dd (deflection) = l(l+1) C_l^phi-phi
#    C_l^gg (shear/convergence) = 1/4 (l(l+1))^2 C_l^phi-phi
#
# 1:l     2:TT                     3:EE                     4:BB                     5:TE                     6:dd                     7:dT                     8:dE                 
    2       1.071194967923e+03       6.318636815778e-02       1.628374640016e-06       3.722755620146e+00       4.944158847546e-08       3.201110385318e-03      -1.743864166490e-05 
    3       1.006742663204e+03       1.146018529891e-01       3.258941108360e-06       4.858756349276e+00       6.140641188995e-08       3.232937154024e-03      -2.246987337724e-05 
    4       9.431197655769e+02       1.436878457964e-01       5.436355591656e-06       5.182142635587e+00       7.129992231387e-08       3.178100495472e-03      -2.407797398601e-05 
    5       8.923040322905e+02       1.437076646056e-01       8.163310993489e-06       4.989322504103e+00       7.991190889530e-08       3.090846900754e-03      -2.301358267021e-05 
    6       8.541810899015e+02       1.209356025172e-01       1.144298369774e-05       4.506263558140e+00       8.746886742796e-08       2.988965385281e-03      -1.991119480069e-05 
    7       8.265967669252e+02       8.786442801524e-02       1.527891846207e-05       3.895111572217e+00       9.411058569855e-08       2.881151989856e-03      -1.548803769568e-05 
    8       8.079211342571e+02       5.620424951048e-02       1.967490107293e-05       3.256671882535e+00       9.998550905020e-08       2.772520209988e-03      -1.046552072847e-05 
    9       7.958270191319e+02       3.294808814459e-02       2.463482389985e-05       2.654768596658e+00       1.052424187350e-07       2.665891946288e-03      -5.506576656137e-06 
   10       7.892097529528e+02       1.968711754199e-02       3.016254976752e-05       2.130146849731e+00       1.100071622715e-07       2.562976794575e-03      -1.153633646075e-06 
   11       7.868153938096e+02       1.421377666401e-02       3.626177962309e-05       1.707178144100e+00       1.112074661560e-07       2.470004623604e-03       2.183063409258e-06 
   12       7.874411492529e+02       1.292061516983e-02       4.293592931178e-05       1.397638752084e+00       1.148489709019e-07       2.373184572994e-03       4.364154968232e-06 
   13       7.909219783646e+02       1.275403058736e-02       5.018802039258e-05       1.200235177394e+00       1.181081681855e-07       2.282432095586e-03       5.340384275415e-06 
   14       7.963897258173e+02       1.212582377864e-02       5.802058934237e-05       1.102624878047e+00       1.210299119558e-07       2.202756698665e-03       5.232350314477e-06 
   15       8.032978106936e+02       1.083300941548e-02       6.643561873580e-05       1.085818416957e+00       1.236506846434e-07       2.125386733765e-03       4.241356764080e-06 
   16       8.116217897019e+02       9.426337910577e-03       7.543449307986e-05       1.126330514220e+00       1.259997242879e-07       2.052440890130e-03       2.661561625510e-06 
   17       8.208752067852e+02       8.523927128212e-03       8.501798096371e-05       1.200989429318e+00       1.281041567626e-07       1.984894319026e-03       8.057506360321e-07 
   18       8.310264411195e+02       8.401714041092e-03       9.518623114062e-05       1.289575673423e+00       1.299371156986e-07       1.921543713807e-03      -1.028258708839e-06 
   19       8.420941738693e+02       8.886943200115e-03       1.059388726992e-04       1.378690299922e+00       1.316695067096e-07       1.863899735728e-03      -2.619512165760e-06 
   20       8.536507577446e+02       9.602105741279e-03       1.172749336511e-04       1.455384341528e+00       1.331610020534e-07       1.809385657302e-03      -3.779665221920e-06 
   21       8.657426928875e+02       1.027005989442e-02       1.291931124680e-04       1.515321969920e+00       1.344997967056e-07       1.757057425518e-03      -4.421588380223e-06 
   22       8.783386836378e+02       1.066630298690e-02       1.416916798167e-04       1.557773229337e+00       1.356608344476e-07       1.704251478490e-03      -4.547795147938e-06 
   23       8.913968017904e+02       1.088963147814e-02       1.547687988097e-04       1.584687868998e+00       1.367148163368e-07       1.652985814099e-03      -4.213254968387e-06 
   24       9.047412783897e+02       1.117369055471e-02       1.684224264348e-04       1.599924136449e+00       1.376130123716e-07       1.605500249198e-03      -3.544051004442e-06 
   25       9.184673858197e+02       1.171769485365e-02       1.826506846231e-04       1.608315190033e+00       1.384101334337e-07       1.562159627672e-03      -2.670312170548e-06 
   26       9.326203523608e+02       1.269571376777e-02       1.974517388641e-04       1.615504184575e+00       1.390841790525e-07       1.521150061765e-03      -1.756606240955e-06 
   27       9.470770496899e+02       1.410508941816e-02       2.128241229475e-04       1.625569212931e+00       1.396626608586e-07       1.481111716363e-03      -9.381633924562e-07 
   28       9.616103420335e+02       1.587657388579e-02       2.287666629243e-04       1.641811553185e+00       1.401097436282e-07       1.440208040897e-03      -3.425592266981e-07 
   29       9.762827522721e+02       1.796304084037e-02       2.452788463157e-04       1.664699505007e+00       1.404991124407e-07       1.399635916323e-03      -1.766955506033e-08 
   30       9.911777085890e+02       2.030798489258e-02       2.623606248393e-04       1.693383682624e+00       1.408509628084e-07       1.361254824963e-03       3.052145434853e-08 
   31       1.006307391301e+03       2.284969909887e-02       2.800124163714e-04       1.726161993116e+00       1.410841707089e-07       1.326294230157e-03      -1.776599744569e-07 
   32       1.021696218244e+03       2.558419291315e-02       2.982353426788e-04       1.759984121667e+00       1.412438594573e-07       1.294889464532e-03      -5.935567088148e-07 
   33       1.037309916428e+03       2.852531995163e-02       3.170311771378e-04       1.790615473843e+00       1.413589297865e-07       1.265945090265e-03      -1.131739682570e-06 
   34       1.053067800743e+03       3.168030340856e-02       3.364022821679e-04       1.813330772138e+00       1.413932107733e-07       1.237643308466e-03      -1.682362539253e-06 
   35       1.068996704845e+03       3.502075365573e-02       3.563514012086e-04       1.825189186399e+00       1.413787501119e-07       1.209863433313e-03      -2.178607603169e-06 
   36       1.085118977742e+03       3.850067903785e-02       3.768818842485e-04       1.823487662471e+00       1.413221536641e-07       1.182690542006e-03      -2.556706658203e-06 
   37       1.101424226982e+03       4.207986459020e-02       3.979975289965e-04       1.805778298174e+00       1.411837997895e-07       1.155934936088e-03      -2.753385843037e-06 
   38       1.117931634313e+03       4.578030000743e-02       4.197016715714e-04       1.772064263606e+00       1.410022495255e-07       1.129876139538e-03      -2.762377583802e-06 
   39       1.134639999612e+03       4.964876164544e-02       4.419978572918e-04       1.723349969119e+00       1.408135108703e-07       1.104740746215e-03      -2.604970008139e-06 
   40       1.151505548208e+03       5.374260144910e-02       4.648901207274e-04       1.661092781941e+00       1.406043516220e-07       1.080442273095e-03      -2.318842458487e-06 
   41       1.168469460202e+03       5.811794917861e-02       4.883825698720e-04       1.586973284160e+00       1.403276191166e-07       1.056709612973e-03      -1.954121837120e-06 
   42       1.185561586694e+03       6.278802358511e-02       5.124779074028e-04       1.502041615810e+00       1.400059880076e-07       1.033715644374e-03      -1.552896801048e-06 
   43       1.202823249876e+03       6.775242393848e-02       5.371784759734e-04       1.407345388472e+00       1.396649207810e-07       1.011639865397e-03      -1.163980655638e-06 
   44       1.220276243925e+03       7.300829520379e-02       5.624866589400e-04       1.304179248148e+00       1.392969402373e-07       9.904649636563e-04      -8.499358300664e-07 
   45       1.237926742338e+03       7.855117170138e-02       5.884044700156e-04       1.193693225282e+00       1.388739817186e-07       9.700560590585e-04      -6.722084170231e-07 
   46       1.255783411448e+03       8.437819387947e-02       6.149321813394e-04       1.075547688619e+00       1.384203445684e-07       9.505351327873e-04      -6.346574613522e-07 
   47       1.273841103944e+03       9.048557530195e-02       6.420692813565e-04       9.488782708075e-01       1.379644240635e-07       9.320074894613e-04      -7.176744106843e-07 
   48       1.292073572566e+03       9.686757643604e-02       6.698148221417e-04       8.126554382735e-01       1.375142369073e-07       9.144364447874e-04      -8.912958083371e-07 
   49       1.310431696120e+03       1.035163992621e-01       6.981673936088e-04       6.656741214912e-01       1.370512339751e-07       8.976190913745e-04      -1.113917552832e-06 
   50       1.328864951700e+03       1.104243214888e-01       7.271250335153e-04       5.067117154899e-01       1.365423812183e-07       8.812769956594e-04      -1.339461583991e-06 
   51       1.347396818089e+03       1.175910266517e-01       7.566849885199e-04       3.350766993114e-01       1.360017961853e-07       8.654343131032e-04      -1.545629805451e-06 
   52       1.366066773325e+03       1.250180815138e-01       7.868438436846e-04       1.501910083882e-01       1.354497462173e-07       8.501474007857e-04      -1.714688358686e-06 
   53       1.384908173458e+03       1.327068703618e-01       8.175975528780e-04      -4.856770866627e-02       1.348932386070e-07       8.353897676125e-04      -1.825664129277e-06 
   54       1.403947572511e+03       1.406585950094e-01       8.489414099630e-04      -2.618685364827e-01       1.343223818398e-07       8.210393408365e-04      -1.854069636517e-06 
   55       1.423203878745e+03       1.488740987275e-01       8.808705713704e-04      -4.902170128235e-01       1.337188467915e-07       8.069391094777e-04      -1.779591547351e-06 
   56       1.442687135925e+03       1.573532868081e-01       9.133818418523e-04      -7.332575113114e-01       1.330962580073e-07       7.931376802617e-04      -1.613226716987e-06 
   57       1.462398248148e+03       1.660955620616e-01       9.464722818795e-04      -9.903018407003e-01       1.324723214215e-07       7.797138262940e-04      -1.379629168941e-06 
   58       1.482328445530e+03       1.750999815697e-01       9.801386879510e-04      -1.260521073172e+00       1.318560237978e-07       7.667040944711e-04      -1.110620223757e-06 
   59       1.502458597789e+03       1.843652498288e-01       1.014377585263e-03      -1.542939702717e+00       1.312453949852e-07       7.540963889716e-04      -8.458644882521e-07 
   60       1.522758527824e+03       1.938897118927e-01       1.049185220379e-03      -1.836429803508e+00       1.306250658616e-07       7.418232759056e-04      -6.335698206438e-07 
   61       1.543198726835e+03       2.036713590837e-01       1.084558365298e-03      -2.139966722993e+00       1.299744389249e-07       7.297979416520e-04      -5.190818828299e-07 
   62       1.563790125396e+03       2.137078631348e-01       1.120496957144e-03      -2.453476443671e+00       1.293030597845e-07       7.180527666159e-04      -5.044327671672e-07 
   63       1.584552071987e+03       2.239965375779e-01       1.157002040673e-03      -2.777168920292e+00       1.286261047609e-07       7.066346657946e-04      -5.765535670997e-07 
   64       1.605500432074e+03       2.345343195225e-01       1.194075027206e-03      -3.111295736729e+00       1.279537643455e-07       6.955626192741e-04      -7.178621157071e-07 
   65       1.626647295177e+03       2.453177631969e-01       1.231717713044e-03      -3.456152562652e+00       1.272900094352e-07       6.848239352507e-04      -9.058531267184e-07 
   66       1.648000681945e+03       2.563430334903e-01       1.269932297883e-03      -3.812081610206e+00       1.266312538492e-07       6.743703671129e-04      -1.112674763213e-06 
   67       1.669564251228e+03       2.676058994947e-01       1.308721403230e-03      -4.179474090688e+00       1.259649098264e-07       6.641140845829e-04      -1.304691634010e-06 
   68       1.691340044229e+03       2.791014593981e-01       1.348087964295e-03      -4.558669692289e+00       1.252756309516e-07       6.539616246078e-04      -1.450110600773e-06 
   69       1.713338017423e+03       2.908232648701e-01       1.388034839079e-03      -4.949625869626e+00       1.245707604524e-07       6.439375022780e-04      -1.545617124827e-06 
   70       1.735567923910e+03       3.027640068367e-01       1.428565152800e-03      -5.352185648958e+00       1.238622230188e-07       6.340904232211e-04      -1.596976183455e-06 
   71       1.758036235844e+03       3.149157553406e-01       1.469682432303e-03      -5.766174504163e+00       1.231589606687e-07       6.244567991181e-04      -1.611789377805e-06 
   72       1.780745929183e+03       3.272699462119e-01       1.511390621241e-03      -6.191400179684e+00       1.224662436414e-07       6.150590852892e-04      -1.599645941709e-06 
   73       1.803696268438e+03       3.398173677396e-01       1.553694095256e-03      -6.627652513477e+00       1.217849286665e-07       6.059040577482e-04      -1.572278271272e-06 
   74       1.826882591417e+03       3.525481473419e-01       1.596597677156e-03      -7.074703259951e+00       1.211106630915e-07       5.969810297294e-04      -1.543721975213e-06 
   75       1.850296093972e+03       3.654517382377e-01       1.640106652094e-03      -7.532305912915e+00       1.204330333490e-07       5.882600076843e-04      -1.530480445982e-06 
   76       1.873927505220e+03       3.785176500593e-01       1.684225735524e-03      -8.000194232643e+00       1.197401709626e-07       5.797072018883e-04      -1.547708024733e-06 
   77       1.897779362735e+03       3.917378239677e-01       1.728955726244e-03      -8.478077908362e+00       1.190366818263e-07       5.713408423408e-04      -1.596158874470e-06 
   78       1.921855595124e+03       4.051046684470e-01       1.774296267761e-03      -8.965645779451e+00       1.183305047615e-07       5.631870833651e-04      -1.671993929684e-06 
   79       1.946157696855e+03       4.186103556813e-01       1.820246835172e-03      -9.462566860814e+00       1.176275764579e-07       5.552629322657e-04      -1.770393324834e-06 
   80       1.970684592781e+03       4.322468234802e-01       1.866806728875e-03      -9.968490139251e+00       1.169314300200e-07       5.475752300543e-04      -1.885485538667e-06 
   81       1.995432502663e+03       4.460057772051e-01       1.913975068266e-03      -1.048304436983e+01       1.162427661974e-07       5.401195996565e-04      -2.010274648597e-06 
   82       2.020394805697e+03       4.598786916955e-01       1.961750785451e-03      -1.100583787226e+01       1.155589965936e-07       5.328793615976e-04      -2.136565695153e-06 
   83       2.045561905037e+03       4.738568131951e-01       2.010132618944e-03      -1.153645832726e+01       1.148737581464e-07       5.258244171689e-04      -2.254888156485e-06 
   84       2.070924889658e+03       4.879305097815e-01       2.059119244346e-03      -1.207449814794e+01       1.141799701120e-07       5.189230270424e-04      -2.356474774476e-06 
   85       2.096487514199e+03       5.020871947096e-01       2.108709705038e-03      -1.261963587255e+01       1.134813817185e-07       5.121831289062e-04      -2.439944242230e-06 
   86       2.122255965969e+03       5.163130607330e-01       2.158903041678e-03      -1.317156795434e+01       1.127838560122e-07       5.056191382758e-04      -2.506129233723e-06 
   87       2.148235173590e+03       5.305936921014e-01       2.209698157642e-03      -1.372998460909e+01       1.120918942681e-07       4.992393373190e-04      -2.556183911541e-06 
   88       2.174428735345e+03       5.449140555366e-01       2.261093815035e-03      -1.429457004135e+01       1.114083912711e-07       4.930452781209e-04      -2.591606590205e-06 
   89       2.200838847516e+03       5.592584912095e-01       2.313088630692e-03      -1.486500267059e+01       1.107343755408e-07       4.870311688560e-04      -2.614262964678e-06 
   90       2.227466232736e+03       5.736107037164e-01       2.365681072192e-03      -1.544095535747e+01       1.100687341488e-07       4.811832428691e-04      -2.626409904034e-06 
   91       2.254310068331e+03       5.879537530558e-01       2.418869453856e-03      -1.602209562998e+01       1.094079217745e-07       4.754791106643e-04      -2.630719810311e-06 
   92       2.281367914664e+03       6.022700456051e-01       2.472651932762e-03      -1.660808590969e+01       1.087456536474e-07       4.698870948022e-04      -2.630305542527e-06 
   93       2.308636944087e+03       6.165425891849e-01       2.527027754744e-03      -1.719857182220e+01       1.080754943135e-07       4.643765053770e-04      -2.628055031068e-06 
   94       2.336117994836e+03       6.307589937791e-01       2.582001215450e-03      -1.779314462607e+01       1.074002670173e-07       4.589526566809e-04      -2.624405462221e-06 
   95       2.363811997196e+03       6.449080586396e-01       2.637578290419e-03      -1.839137352515e+01       1.067248420672e-07       4.536284581808e-04      -2.619115902779e-06 
   96       2.391718674145e+03       6.589785700291e-01       2.693765451151e-03      -1.899281714262e+01       1.060533410511e-07       4.484138725304e-04      -2.611912906122e-06 
   97       2.419836487549e+03       6.729593095493e-01       2.750569678272e-03      -1.959702358361e+01       1.053890046943e-07       4.433156355613e-04      -2.602488593960e-06 
   98       2.448162584362e+03       6.868390624694e-01       2.807998474703e-03      -2.020353049784e+01       1.047340532159e-07       4.383369688360e-04      -2.590498694671e-06 
   99       2.476692742828e+03       7.006066260550e-01       2.866059878821e-03      -2.081186514231e+01       1.040895390188e-07       4.334772847608e-04      -2.575560538236e-06 
  100       2.505421318672e+03       7.142508178962e-01       2.924762477626e-03      -2.142154444384e+01       1.034551915566e-07       4.287318842594e-04      -2.557251007770e-06 
  101       2.534341191305e+03       7.277604842362e-01       2.984115419905e-03      -2.203207506181e+01       1.028292542129e-07       4.240916470072e-04      -2.535104447644e-06 
  102       2.563443710020e+03       7.411245083001e-01       3.044128429399e-03      -2.264295345073e+01       1.022083130348e-07       4.195427142262e-04      -2.508610528209e-06 
  103       2.592718640189e+03       7.543318186234e-01       3.104811817966e-03      -2.325366592290e+01       1.015871171580e-07       4.150661640402e-04      -2.477212067104e-06 
  104       2.622156322674e+03       7.673711233656e-01       3.166175201647e-03      -2.386369425190e+01       1.009605235689e-07       4.106440742262e-04      -2.440491927061e-06 
  105       2.651754600149e+03       7.802300544390e-01       3.228223422972e-03      -2.447253321013e+01       1.003303614028e-07       4.062798499991e-04      -2.398781962270e-06 
  106       2.681512730480e+03       7.928959227532e-01       3.290960099796e-03      -2.507967552814e+01       9.970005204354e-08       4.019813832274e-04      -2.352672923686e-06 
  107       2.711429227932e+03       8.053559871581e-01       3.354388872137e-03      -2.568460668737e+01       9.907256662282e-08       3.977548782455e-04      -2.302839993264e-06 
