# Rescaled matter transfer functions [-T_i(k)/k^2] for adiabatic (AD) mode (normalized to initial curvature=1) at redshift z=0
# for k=1.02929e-05 to 163.123 h/Mpc,
# number of wavenumbers equal to 624
# T_i   stands for (delta rho_i/rho_i)(k,z) with above normalization 
# The rescaling factor [-1/k^2] with k in 1/Mpc is here to match the CMBFAST/CAMB output convention
#
#
#    1:k (h/Mpc)              2:-T_cdm/k2              3:-T_b/k2                4:-T_g/k2                5:-T_ur/k2               6:-T_ncdm/k2             7:-T_tot/k2          
       1.029287750344e-05       1.995678741228e+07       2.026195283534e+07       2.700203994904e+07       2.700157238662e+07       2.025726127198e+07       5.884402609556e+06 
       2.306408629449e-05       1.995735019205e+07       2.026145088737e+07       2.694555600353e+07       2.694321244808e+07       2.025660616218e+07       5.884397516754e+06 
       3.587926851773e-05       1.995834270392e+07       2.026055930181e+07       2.684566481275e+07       2.684001094106e+07       2.025544302421e+07       5.884388065871e+06 
       4.877231764121e-05       1.995977128630e+07       2.025927362230e+07       2.670193304322e+07       2.669153238063e+07       2.025376503673e+07       5.884374599047e+06 
       6.177767675510e-05       1.996164340570e+07       2.025758500472e+07       2.651366890150e+07       2.649708018270e+07       2.025155971882e+07       5.884357328283e+06 
       7.493064049969e-05       1.996396800451e+07       2.025547961147e+07       2.627992549949e+07       2.625570095649e+07       2.024880826182e+07       5.884336081276e+06 
       8.826766647070e-05       1.996675870878e+07       2.025294236988e+07       2.599951170435e+07       2.596619623114e+07       2.024548919863e+07       5.884311360595e+06 
       1.018267001798e-04       1.997003013866e+07       2.024995290715e+07       2.567099428554e+07       2.562712636027e+07       2.024157422202e+07       5.884283275553e+06 
       1.156475176793e-04       1.997379976219e+07       2.024648749523e+07       2.529271257521e+07       2.523682627070e+07       2.023702998236e+07       5.884252096544e+06 
       1.297720899936e-04       1.997808742710e+07       2.024251820297e+07       2.486279239931e+07       2.479342332104e+07       2.023181705508e+07       5.884218199500e+06 
       1.442449735085e-04       1.998291537166e+07       2.023801312115e+07       2.437917072694e+07       2.429486446209e+07       2.022588994164e+07       5.884182128802e+06 
       1.591137304203e-04       1.998830619283e+07       2.023293426740e+07       2.383962758378e+07       2.373895133909e+07       2.021919471023e+07       5.884144133737e+06 
       1.744293831923e-04       1.999428597857e+07       2.022724096372e+07       2.324183751903e+07       2.312339722039e+07       2.021167205091e+07       5.884105220167e+06 
       1.902469066377e-04       2.000088001115e+07       2.022088573249e+07       2.258342698999e+07       2.244589330839e+07       2.020325278482e+07       5.884066118251e+06 
       2.066257606630e-04       2.000811391112e+07       2.021381631836e+07       2.186207230668e+07       2.170420799724e+07       2.019385945063e+07       5.884027890500e+06 
       2.236304657464e-04       2.001601112839e+07       2.020597405113e+07       2.107560935460e+07       2.089631306403e+07       2.018340412093e+07       5.883991583668e+06 
       2.413312217319e-04       2.002459294775e+07       2.019729547426e+07       2.022219737892e+07       2.002055383345e+07       2.017178941957e+07       5.883958729785e+06 
       2.598045683113e-04       2.003387471353e+07       2.018771090469e+07       1.930051390623e+07       1.907586356216e+07       2.015890633943e+07       5.883930874998e+06 
       2.791340823782e-04       2.004386337344e+07       2.017714507678e+07       1.831002441715e+07       1.806203857712e+07       2.014463406211e+07       5.883909683526e+06 
       2.994111029921e-04       2.005455450651e+07       2.016551855927e+07       1.725129709006e+07       1.698008060150e+07       2.012884036936e+07       5.883897073412e+06 
       3.207354686251e-04       2.006592609697e+07       2.015274737658e+07       1.612640015923e+07       1.583260932248e+07       2.011138014244e+07       5.883894642144e+06 
       3.432162433231e-04       2.007793388324e+07       2.013874587873e+07       1.493937751245e+07       1.462435234146e+07       2.009209695690e+07       5.883903756603e+06 
       3.669723980279e-04       2.009050436245e+07       2.012342909722e+07       1.369678171483e+07       1.336269778733e+07       2.007082397723e+07       5.883925143029e+06 
       3.921334003248e-04       2.010352422816e+07       2.010671414695e+07       1.240825569277e+07       1.205828246117e+07       2.004738375329e+07       5.883957607151e+06 
       4.188396502575e-04       2.011683452658e+07       2.008852785922e+07       1.108712025556e+07       1.072557229512e+07       2.002159411791e+07       5.883998027038e+06 
       4.472426819870e-04       2.013021860215e+07       2.006881018451e+07       9.750866749481e+06       9.383331749448e+06       1.999326972526e+07       5.884039275063e+06 
       4.775050320361e-04       2.014339276930e+07       2.004752114353e+07       8.421445576594e+06       8.054856125379e+06       1.996222710849e+07       5.884068232719e+06 
       5.097996567796e-04       2.015600029738e+07       2.002464913476e+07       7.125185022102e+06       6.767773540667e+06       1.992829125710e+07       5.884063430583e+06 
       5.443087681852e-04       2.016760888903e+07       2.000021929270e+07       5.892071610178e+06       5.553177787821e+06       1.989130235278e+07       5.883991748392e+06 
       5.812219526636e-04       2.017771633760e+07       1.997430077055e+07       4.754189108908e+06       4.443837090299e+06       1.985112198504e+07       5.883804636787e+06 
       6.207334498025e-04       2.018576755153e+07       1.994701234847e+07       3.743086281626e+06       3.471278091651e+06       1.980763844097e+07       5.883434223107e+06 
       6.630385030907e-04       2.019118636395e+07       1.991852281516e+07       2.886018290382e+06       2.661716708264e+06       1.976076790101e+07       5.882790063988e+06 
       7.083287599620e-04       2.019342721030e+07       1.988904766090e+07       2.201311551713e+06       2.031158282675e+06       1.971045331852e+07       5.881758947629e+06 
       7.567867966029e-04       2.019203586396e+07       1.985883154350e+07       1.693589096142e+06       1.580492574375e+06       1.965665104952e+07       5.880207104748e+06 
       8.085799700491e-04       2.018672311608e+07       1.982812632454e+07       1.350149828845e+06       1.292032003801e+06       1.959931527695e+07       5.877990312671e+06 
       8.638539422511e-04       2.017742669378e+07       1.979715758289e+07       1.140222408383e+06       1.129336907563e+06       1.953837319604e+07       5.874970652533e+06 
       9.227263530985e-04       2.016434000297e+07       1.976608452007e+07       1.018728762987e+06       1.042010743725e+06       1.947369591558e+07       5.871039363398e+06 
       9.852812088663e-04       2.014789514752e+07       1.973497119073e+07       9.351900141784e+05       9.759695638861e+05       1.940508259302e+07       5.866144427540e+06 
       1.051564566164e-03       2.012867172257e+07       1.970376358302e+07       8.463094158347e+05       8.873481124575e+05       1.933225154694e+07       5.860309762472e+06 
       1.121582007779e-03       2.010725827722e+07       1.967229855259e+07       7.282582520795e+05       7.554987174164e+05       1.925486331551e+07       5.853639761179e+06 
       1.195298226958e-03       2.008408982277e+07       1.964033260505e+07       5.830234220559e+05       5.888837496020e+05       1.917256232955e+07       5.846295460258e+06 
       1.272638789155e-03       2.005933338038e+07       1.960759565237e+07       4.343280864867e+05       4.191964498229e+05       1.908504105585e+07       5.838445602080e+06 
       1.353493875101e-03       2.003283083717e+07       1.957380412798e+07       3.131308056727e+05       2.841982506416e+05       1.899206464987e+07       5.830192950285e+06 
       1.437723582752e-03       2.000429721367e+07       1.953880178813e+07       2.391789585204e+05       2.068850700851e+05       1.889360256973e+07       5.821556278135e+06 
       1.525164222992e-03       1.997346567615e+07       1.950253168713e+07       2.090906238856e+05       1.826997603598e+05       1.878980243588e+07       5.812457236499e+06 
       1.615635004368e-03       1.994021070192e+07       1.946496953480e+07       1.990730356389e+05       1.834250749637e+05       1.868092211129e+07       5.802758281692e+06 
       1.708944557460e-03       1.990463921824e+07       1.942611700393e+07       1.812873997140e+05       1.761184064212e+05       1.856730809863e+07       5.792352956305e+06 
       1.804896870773e-03       1.986702410440e+07       1.938597667410e+07       1.427149636270e+05       1.443813072149e+05       1.844935634852e+07       5.781233521756e+06 
       1.903296360590e-03       1.982764509276e+07       1.934453715172e+07       9.255162573662e+04       9.664190739854e+04       1.832748175867e+07       5.769495709046e+06 
       2.003951944269e-03       1.978665970718e+07       1.930178555749e+07       5.239284793139e+04       5.555648367183e+04       1.820211392452e+07       5.757278828148e+06 
       2.106680107721e-03       1.974407706641e+07       1.925772239011e+07       3.728816843238e+04       3.768044802719e+04       1.807369630607e+07       5.744679472716e+06 
       2.211307043597e-03       1.969984916656e+07       1.921237742416e+07       4.347713832196e+04       4.045521586457e+04       1.794268760348e+07       5.731705097870e+06 
       2.317669987009e-03       1.965398097797e+07       1.916580013354e+07       5.283958089546e+04       4.679107417400e+04       1.780953981374e+07       5.718296773994e+06 
       2.425617896367e-03       1.960658921992e+07       1.911805200573e+07       4.925296328541e+04       4.165654549206e+04       1.767468133942e+07       5.704404960672e+06 
       2.535011626577e-03       1.955785578117e+07       1.906919168733e+07       3.165029702176e+04       2.471579238102e+04       1.753849497865e+07       5.690048806598e+06 
       2.645723728360e-03       1.950793858822e+07       1.901927257434e+07       1.241624856965e+04       7.932582973128e+03       1.740131203750e+07       5.675313032269e+06 
       2.757637987539e-03       1.945691641697e+07       1.896834742536e+07       4.034749771624e+03       2.110068640440e+03       1.726341570060e+07       5.660288160572e+06 
       2.870648796326e-03       1.940481172928e+07       1.891647648587e+07       7.587238504791e+03       6.511145220053e+03       1.712505020915e+07       5.645011739666e+06 
       2.984660427864e-03       1.935165297267e+07       1.886372479679e+07       1.362202409432e+04       1.125293995166e+04       1.698642166169e+07       5.629461618390e+06 
       3.099586267052e-03       1.929752281401e+07       1.881016117970e+07       1.285885022702e+04       8.465290294176e+03       1.684770139814e+07       5.613605709731e+06 
       3.215348035559e-03       1.924253794836e+07       1.875584689219e+07       4.912804834687e+03       3.854727375208e+03       1.670907921297e+07       5.597453318652e+06 
       3.331875036941e-03       1.918680821643e+07       1.870084325912e+07      -3.266228993958e+03       1.143181369833e+04       1.657078417854e+07       5.581064287648e+06 
       3.449103438556e-03       1.913039112682e+07       1.864520228341e+07      -5.994948889764e+03       2.773208133588e+04       1.643275766598e+07       5.564502222201e+06 
       3.566975600163e-03       1.907331384901e+07       1.858897885705e+07      -4.456433588408e+03       4.027491013775e+04       1.629517553520e+07       5.547792416708e+06 
       3.685439454157e-03       1.901560669856e+07       1.853222441173e+07      -3.865668650934e+03       4.199779416214e+04       1.615819216743e+07       5.530916404461e+06 
       3.804447938978e-03       1.895733389590e+07       1.847499085556e+07      -6.619889120020e+03       3.615842863756e+04       1.602194269081e+07       5.513852878358e+06 
       3.923958484890e-03       1.889857440807e+07       1.841732199468e+07      -9.720531745161e+03       3.094069310141e+04       1.588653718740e+07       5.496614611035e+06 
       4.043932549896e-03       1.883939588482e+07       1.835926013914e+07      -8.948513720832e+03       3.111225519147e+04       1.575206845691e+07       5.479249211872e+06 
       4.164335202629e-03       1.877982912193e+07       1.830083891605e+07      -4.278568444351e+03       3.463197170910e+04       1.561860814325e+07       5.461799509211e+06 
       4.285134748648e-03       1.871989216482e+07       1.824209496956e+07      -4.237235969278e+01       3.626553239303e+04       1.548621903757e+07       5.444274387222e+06 
       4.406302396369e-03       1.865961238782e+07       1.818306311988e+07       4.564370804437e+01       3.355279253732e+04       1.535495241246e+07       5.426653394594e+06 
       4.527811958903e-03       1.859903421981e+07       1.812377235872e+07      -3.082271899288e+03       2.891427540547e+04       1.522484498448e+07       5.408921243394e+06 
       4.649639588215e-03       1.853821150112e+07       1.806425170375e+07      -2.382949921143e+04      -2.421563157262e+04       1.509592590543e+07       5.391093322347e+06 
       4.771763538247e-03       1.847718495647e+07       1.800452978111e+07      -2.255208319356e+04      -2.291749152014e+04       1.496821480379e+07       5.373213905255e+06 
       4.894163953891e-03       1.841596921575e+07       1.794462899850e+07      -2.136739744025e+04      -2.171360074422e+04       1.484171904352e+07       5.355307167854e+06 
       5.016822682975e-03       1.835457401327e+07       1.788457263979e+07      -2.026749456561e+04      -2.059587275505e+04       1.471643970182e+07       5.337369176809e+06 
       5.139723108720e-03       1.829302192759e+07       1.782438463701e+07      -1.924549016742e+04      -1.955729882848e+04       1.459237253197e+07       5.319379484745e+06 
       5.262850000337e-03       1.823134613406e+07       1.776408476112e+07      -1.829464334378e+04      -1.859102661540e+04       1.446950327443e+07       5.301330704806e+06 
       5.386189379735e-03       1.816958664522e+07       1.770369836586e+07      -1.740828305923e+04      -1.769028551352e+04       1.434781667420e+07       5.283245121798e+06 
       5.509728402495e-03       1.810775686065e+07       1.764323736199e+07      -1.658035403010e+04      -1.684893107614e+04       1.422728136351e+07       5.265151788912e+06 
       5.633455251495e-03       1.804587146996e+07       1.758272686227e+07      -1.580592544173e+04      -1.606195279722e+04       1.410787353755e+07       5.247066554939e+06 
       5.757359041740e-03       1.798392985302e+07       1.752217581582e+07      -1.508103679687e+04      -1.532531818684e+04       1.398955362266e+07       5.228975423816e+06 
       5.881429735139e-03       1.792196567184e+07       1.746161542536e+07      -1.440210510871e+04      -1.463537942758e+04       1.387229824140e+07       5.210865442366e+06 
       6.005658064095e-03       1.785999286812e+07       1.740104888184e+07      -1.376542529080e+04      -1.398837236778e+04       1.375606142742e+07       5.192734055427e+06 
       6.130035462923e-03       1.779803594493e+07       1.734049293111e+07      -1.316731283439e+04      -1.338055931900e+04       1.364080863848e+07       5.174604122855e+06 
       6.254554006220e-03       1.773610302096e+07       1.727995848421e+07      -1.260452464677e+04      -1.280864911332e+04       1.352650243213e+07       5.156497598953e+06 
       6.379206353425e-03       1.767419957030e+07       1.721945937557e+07      -1.207449180334e+04      -1.227002929325e+04       1.341311058877e+07       5.138417969010e+06 
       6.503985698871e-03       1.761232932487e+07       1.715900337751e+07      -1.157510849527e+04      -1.176255432226e+04       1.330059934678e+07       5.120349463989e+06 
       6.628885726747e-03       1.755051123224e+07       1.709860386009e+07      -1.110432061437e+04      -1.128413383235e+04       1.318894341787e+07       5.102281345707e+06 
       6.753900570425e-03       1.748876321703e+07       1.703826970151e+07      -1.065994614673e+04      -1.083255266961e+04       1.307811794930e+07       5.084220698506e+06 
       6.879024775696e-03       1.742709313048e+07       1.697800505068e+07      -1.023984265431e+04      -1.040563816252e+04       1.296809877300e+07       5.066186662060e+06 
       7.004253267489e-03       1.736550525058e+07       1.691781820363e+07      -9.842207807526e+03      -1.000156047140e+04       1.285886893517e+07       5.048192939102e+06 
       7.129581319714e-03       1.730400295935e+07       1.685771816516e+07      -9.465640376129e+03      -9.618893181630e+03       1.275041594152e+07       5.030235291841e+06 
       7.255004527899e-03       1.724258797917e+07       1.679770701880e+07      -9.108930503702e+03      -9.256403206278e+03       1.264272526226e+07       5.012297946766e+06 
       7.380518784339e-03       1.718127534409e+07       1.673779386374e+07      -8.770811124904e+03      -8.912802134685e+03       1.253579047547e+07       4.994376346679e+06 
       7.506120255487e-03       1.712007941954e+07       1.667798742699e+07      -8.449921401423e+03      -8.586709507126e+03       1.242960687826e+07       4.976482340303e+06 
       7.631805361386e-03       1.705900126417e+07       1.661828891771e+07      -8.144977611565e+03      -8.276823539649e+03       1.232416553125e+07       4.958631097504e+06 
       7.757570756903e-03       1.699804128928e+07       1.655870367107e+07      -7.854951545216e+03      -7.982099454162e+03       1.221946144791e+07       4.940828107577e+06 
       7.883413314624e-03       1.693720131997e+07       1.649923728005e+07      -7.579041165653e+03      -7.701719905770e+03       1.211549017922e+07       4.923064515388e+06 
       8.009330109218e-03       1.687649091734e+07       1.643989814868e+07      -7.316496648145e+03      -7.434920890872e+03       1.201224892310e+07       4.905330077761e+06 
       8.135318403144e-03       1.681590866296e+07       1.638068033679e+07      -7.066479266364e+03      -7.180850442558e+03       1.190972400728e+07       4.887622209607e+06 
       8.261375633566e-03       1.675547075204e+07       1.632159753752e+07      -6.828114937971e+03      -6.938622374966e+03       1.180791495201e+07       4.869955999657e+06 
       8.387499400368e-03       1.669517932345e+07       1.626265402381e+07      -6.600623833485e+03      -6.707445617914e+03       1.170681355931e+07       4.852342899523e+06 
       8.513687455156e-03       1.663503029358e+07       1.620384992097e+07      -6.383404609833e+03      -6.486708388884e+03       1.160640772659e+07       4.834781073358e+06 
       8.639937691168e-03       1.657502208230e+07       1.614518512267e+07      -6.175967412560e+03      -6.275911110007e+03       1.150668460025e+07       4.817259372728e+06 
       8.766248133994e-03       1.651516468657e+07       1.608666716699e+07      -5.977809420035e+03      -6.074541932586e+03       1.140763606246e+07       4.799772289339e+06 
       8.892616933050e-03       1.645546047355e+07       1.602829479042e+07      -5.788359324511e+03      -5.882021099275e+03       1.130924793778e+07       4.782323435660e+06 
       9.019042353725e-03       1.639591412830e+07       1.597007191678e+07      -5.607039328309e+03      -5.697762981900e+03       1.121150964163e+07       4.764924539821e+06 
       9.145522770143e-03       1.633652427168e+07       1.591199946856e+07      -5.433373494734e+03      -5.521284361911e+03       1.111440941180e+07       4.747581115957e+06 
