# total lensed [l(l+1)/2pi] C_l's (units: [microK]^2)
# for l=2 to 2500, i.e. number of multipoles equal to 2499
#
# -> if you don't want to see such a header, set 'headers' to 'no' in input file
# -> for CMB lensing (d), these are C_l^dd for the deflection field.
#    Remember the conversion factors:
#    C_l^dd (deflection) = l(l+1) C_l^phi-phi
#    C_l^gg (shear/convergence) = 1/4 (l(l+1))^2 C_l^phi-phi
#
# 1:l     2:TT                     3:EE                     4:BB                     5:TE                     6:dd                     7:dT                     8:dE                 
    2       1.104861464495e+03       6.373484525861e-02       1.664266693124e-06       3.619444189665e+00       4.905287956282e-08       3.331247053306e-03      -1.732398576061e-05 
    3       1.031483197797e+03       1.145476226880e-01       3.330645967523e-06       4.682381217493e+00       6.074309417366e-08       3.363208788859e-03      -2.220369718102e-05 
    4       9.614703595032e+02       1.426938343275e-01       5.555692585854e-06       4.961841910166e+00       7.070955156152e-08       3.308718698425e-03      -2.368159213442e-05 
    5       9.060862711197e+02       1.419536185529e-01       8.342007456398e-06       4.758286568768e+00       7.938143891291e-08       3.220718370738e-03      -2.252293065328e-05 
    6       8.648210326936e+02       1.188832564772e-01       1.169266313296e-05       4.291646719324e+00       8.699235318141e-08       3.116930837901e-03      -1.937032126967e-05 
    7       8.348765762054e+02       8.599337958318e-02       1.561109530511e-05       3.714632344303e+00       9.368206477047e-08       3.005746285136e-03      -1.493253304963e-05 
    8       8.144318202070e+02       5.484875521322e-02       2.010098257515e-05       3.118078920728e+00       9.953697829219e-08       2.893039561677e-03      -9.919359852211e-06 
    9       8.014406607993e+02       3.225129723319e-02       2.516611928991e-05       2.557745314145e+00       1.047234115280e-07       2.782859607845e-03      -4.982055112271e-06 
   10       7.939014831100e+02       1.962873657673e-02       3.081028646285e-05       2.070437050645e+00       1.094229432714e-07       2.677252923873e-03      -6.537626327759e-07 
   11       7.911005361799e+02       1.466413425131e-02       3.703712588638e-05       1.677667625363e+00       1.108737110538e-07       2.581315250166e-03       2.661006814878e-06 
   12       7.916006032684e+02       1.369252626818e-02       4.385002239340e-05       1.389055044360e+00       1.146005758550e-07       2.478670165626e-03       4.818672157069e-06 
   13       7.946356533539e+02       1.364513778691e-02       5.125199888633e-05       1.204118187159e+00       1.179473391127e-07       2.386273109834e-03       5.788257651995e-06 
   14       8.000268931790e+02       1.295386738120e-02       5.924562822484e-05       1.112339588743e+00       1.209585976269e-07       2.302348808667e-03       5.666286052516e-06 
   15       8.070307479894e+02       1.146407795500e-02       6.783296537203e-05       1.096131838722e+00       1.236679567784e-07       2.220914322094e-03       4.657990759647e-06 
   16       8.151350829978e+02       9.791727707663e-03       7.701550236994e-05       1.133912104792e+00       1.261058072290e-07       2.147241378381e-03       3.059729583625e-06 
   17       8.244789613390e+02       8.621583965548e-03       8.679414778280e-05       1.203539143116e+00       1.282988454610e-07       2.078166760158e-03       1.174414685642e-06 
   18       8.344459804266e+02       8.283001185634e-03       9.716921926718e-05       1.286033447154e+00       1.302201348596e-07       2.012378636491e-03      -7.015918365389e-07 
   19       8.451747000379e+02       8.623333612667e-03       1.081405327553e-04       1.368838678415e+00       1.320387751162e-07       1.952317050521e-03      -2.345522175278e-06 
   20       8.567055685486e+02       9.267360580163e-03       1.197073240704e-04       1.439703837755e+00       1.336155792125e-07       1.895957368663e-03      -3.566531477929e-06 
   21       8.688829791663e+02       9.913348802001e-03       1.318684982364e-04       1.494433346542e+00       1.350381701073e-07       1.842213617479e-03      -4.273309409749e-06 
   22       8.812918748821e+02       1.029741170854e-02       1.446225354921e-04       1.532257195402e+00       1.362813429580e-07       1.787764544154e-03      -4.463089124448e-06 
   23       8.940811835396e+02       1.049271381825e-02       1.579677886797e-04       1.555365672317e+00       1.374154372281e-07       1.734086001486e-03      -4.186366622346e-06 
   24       9.074027272469e+02       1.071280262073e-02       1.719023889026e-04       1.567845205204e+00       1.383920892746e-07       1.682981740949e-03      -3.565356310041e-06 
   25       9.211619310552e+02       1.115864690597e-02       1.864245942269e-04       1.574213437874e+00       1.392659674920e-07       1.635577611968e-03      -2.727801516940e-06 
   26       9.350900555781e+02       1.201506680723e-02       2.015326728759e-04       1.579634389132e+00       1.400152773233e-07       1.591296456704e-03      -1.836406573658e-06 
   27       9.491845001858e+02       1.329043203107e-02       2.172252111403e-04       1.588211142288e+00       1.406670912375e-07       1.549112217923e-03      -1.021387350882e-06 
   28       9.634564351609e+02       1.492618923909e-02       2.335010409438e-04       1.603429592528e+00       1.411851164264e-07       1.507096666870e-03      -4.056687715738e-07 
   29       9.779611073837e+02       1.687561950164e-02       2.503596014419e-04       1.625893585998e+00       1.416429326221e-07       1.466212297080e-03      -4.097104550176e-08 
   30       9.926809777217e+02       1.907876836227e-02       2.678007407474e-04       1.654883553796e+00       1.420611327104e-07       1.427848337759e-03       5.678830250298e-08 
   31       1.007527358668e+03       2.147014661639e-02       2.858247215850e-04       1.688799505915e+00       1.423593343388e-07       1.392599763861e-03      -1.047987951944e-07 
   32       1.022534752532e+03       2.404476439994e-02       3.044324789409e-04       1.724524372776e+00       1.425826215191e-07       1.360299249054e-03      -4.834836063831e-07 
   33       1.037721167940e+03       2.681626893474e-02       3.236255480209e-04       1.757670742875e+00       1.427595139642e-07       1.329603342164e-03      -9.988274359512e-07 
   34       1.053061559319e+03       2.979196515297e-02       3.434060081243e-04       1.783396082253e+00       1.428534333603e-07       1.298528045827e-03      -1.545122942958e-06 
   35       1.068602481435e+03       3.294488424588e-02       3.637763293658e-04       1.798988112281e+00       1.428964182821e-07       1.267446654687e-03      -2.052638460502e-06 
   36       1.084376054153e+03       3.623114469416e-02       3.847395576187e-04       1.802120596096e+00       1.428952661959e-07       1.237330653140e-03      -2.450416570703e-06 
   37       1.100377717961e+03       3.961210927779e-02       4.062991698371e-04       1.790653829455e+00       1.428106008874e-07       1.208895985996e-03      -2.666863724037e-06 
   38       1.116613777506e+03       4.310747659601e-02       4.284582714839e-04       1.764350598594e+00       1.426810876425e-07       1.182370067411e-03      -2.693827883338e-06 
   39       1.133060888731e+03       4.676005201809e-02       4.512201944839e-04       1.723742506687e+00       1.425427494328e-07       1.157492541131e-03      -2.552805885089e-06 
   40       1.149647321242e+03       5.062235919883e-02       4.745887488436e-04       1.669700978269e+00       1.423822807806e-07       1.133459699500e-03      -2.281950659987e-06 
   41       1.166287407615e+03       5.474623592316e-02       4.985678445399e-04       1.603384873217e+00       1.421524070393e-07       1.109249624876e-03      -1.931706818338e-06 
   42       1.183009662912e+03       5.914600333298e-02       5.231601403624e-04       1.526005491561e+00       1.418759011813e-07       1.085041146053e-03      -1.542700321999e-06 
   43       1.199862471571e+03       6.382438874039e-02       5.483680033847e-04       1.439025208510e+00       1.415783669792e-07       1.061311283412e-03      -1.161419608186e-06 
   44       1.216876577223e+03       6.878242296996e-02       5.741938783665e-04       1.344245372724e+00       1.412524145623e-07       1.038445950581e-03      -8.475913880687e-07 
   45       1.234067550779e+03       7.401933568511e-02       6.006398952616e-04       1.243280834326e+00       1.408700244539e-07       1.016722043375e-03      -6.601871078893e-07 
   46       1.251448802987e+03       7.953248346408e-02       6.277065507518e-04       1.135752674311e+00       1.404556257105e-07       9.963062458617e-04      -6.041681832358e-07 
   47       1.269019048907e+03       8.531719852715e-02       6.553936333113e-04       1.020586587922e+00       1.400377180247e-07       9.772125977162e-04      -6.627228811938e-07 
   48       1.286756467561e+03       9.136665825811e-02       6.837005603270e-04       8.964973942691e-01       1.396243309119e-07       9.592677481093e-04      -8.096807836877e-07 
   49       1.304616953093e+03       9.767176743342e-02       7.126263559202e-04       7.619761786350e-01       1.391968029120e-07       9.420809989792e-04      -1.008341110865e-06 
   50       1.322553913334e+03       1.042236738371e-01       7.421695338006e-04       6.155319905635e-01       1.387219255445e-07       9.251795601775e-04      -1.217600294420e-06 
   51       1.340588058374e+03       1.110223933308e-01       7.723277597988e-04       4.565241113478e-01       1.382139055630e-07       9.085565420107e-04      -1.416294152395e-06 
   52       1.358753532326e+03       1.180703223873e-01       8.030980593951e-04       2.845334708360e-01       1.376931435156e-07       8.922886037296e-04      -1.586527616613e-06 
   53       1.377077304150e+03       1.253698153327e-01       8.344768786645e-04       9.912697856553e-02       1.371667184367e-07       8.763767987354e-04      -1.706860718809e-06 
   54       1.395578432811e+03       1.329231904992e-01       8.664600576290e-04      -1.001433548329e-01       1.366247268603e-07       8.607345289493e-04      -1.751995535536e-06 
   55       1.414269378501e+03       1.407323905822e-01       8.990432739727e-04      -3.135883195148e-01       1.360487862518e-07       8.452460170570e-04      -1.700431480856e-06 
   56       1.433162001251e+03       1.487978508074e-01       9.322235643153e-04      -5.408789525535e-01       1.354526394162e-07       8.299976789667e-04      -1.561581937989e-06 
   57       1.452261765364e+03       1.571193603697e-01       9.659981341800e-04      -7.814257855682e-01       1.348541283348e-07       8.151097085636e-04      -1.358064803000e-06 
   58       1.471565183013e+03       1.656963764353e-01       1.000363912601e-03      -1.034515912331e+00       1.342623200660e-07       8.006667050322e-04      -1.119163432845e-06 
   59       1.491059159120e+03       1.745280168220e-01       1.035317543800e-03      -1.299307907231e+00       1.336752515771e-07       7.867117057541e-04      -8.814575459783e-07 
   60       1.510720336217e+03       1.836130526801e-01       1.070855378869e-03      -1.574826743739e+00       1.330774685498e-07       7.732399527983e-04      -6.894765384812e-07 
   61       1.530525170780e+03       1.929498711166e-01       1.106974215470e-03      -1.860185738593e+00       1.324482530899e-07       7.602210321766e-04      -5.851908461275e-07 
   62       1.550484287296e+03       2.025363698240e-01       1.143673729818e-03      -2.155322095170e+00       1.317972481598e-07       7.476893847737e-04      -5.707207008547e-07 
   63       1.570614707887e+03       2.123700257041e-01       1.180954578297e-03      -2.460418194813e+00       1.311397661581e-07       7.356724823521e-04      -6.343594263259e-07 
   64       1.590929492888e+03       2.224479147271e-01       1.218817712717e-03      -2.775691219690e+00       1.304860932470e-07       7.241604084414e-04      -7.603453865451e-07 
   65       1.611437426222e+03       2.327667036593e-01       1.257264395719e-03      -3.101395274616e+00       1.298402438012e-07       7.131011962866e-04      -9.284934841411e-07 
   66       1.632142700764e+03       2.433226417894e-01       1.296296216190e-03      -3.437823508866e+00       1.291986100857e-07       7.023959890446e-04      -1.113814451414e-06 
   67       1.653044603713e+03       2.541115526555e-01       1.335915104679e-03      -3.785310237999e+00       1.285485038284e-07       6.918940222288e-04      -1.286121934145e-06 
   68       1.674141220366e+03       2.651287969496e-01       1.376123303255e-03      -4.144149918895e+00       1.278744561721e-07       6.814410199992e-04      -1.416869947871e-06 
   69       1.695442120212e+03       2.763691709929e-01       1.416923233571e-03      -4.514330267300e+00       1.271839004050e-07       6.710536499823e-04      -1.503038195398e-06 
   70       1.716957687966e+03       2.878269727324e-01       1.458317629627e-03      -4.895748626132e+00       1.264888955165e-07       6.607884179779e-04      -1.549734601530e-06 
   71       1.738695124549e+03       2.994960198944e-01       1.500309594956e-03      -5.288290322900e+00       1.257984911443e-07       6.506911385254e-04      -1.563699001750e-06 
   72       1.760658235224e+03       3.113696409748e-01       1.542902616863e-03      -5.691828665007e+00       1.251180309738e-07       6.407953807015e-04      -1.553437351609e-06 
   73       1.782847217743e+03       3.234406662281e-01       1.586100580676e-03      -6.106224935049e+00       1.244484029052e-07       6.311208562245e-04      -1.529359954026e-06 
   74       1.805258450485e+03       3.357014186579e-01       1.629907783994e-03      -6.531328386122e+00       1.237852344518e-07       6.216717498655e-04      -1.503923704511e-06 
   75       1.827884280598e+03       3.481437050063e-01       1.674328950933e-03      -6.966976237123e+00       1.231180318338e-07       6.124349921647e-04      -1.491778354296e-06 
   76       1.850716577554e+03       3.607591259511e-01       1.719368332735e-03      -7.412981654562e+00       1.224348315944e-07       6.033925298945e-04      -1.506418370468e-06 
   77       1.873758610246e+03       3.735400919193e-01       1.765026788753e-03      -7.869095178245e+00       1.217403098443e-07       5.945661173405e-04      -1.548729971054e-06 
   78       1.897014960891e+03       3.864789770029e-01       1.811304196580e-03      -8.335036220165e+00       1.210425071614e-07       5.859814621687e-04      -1.615600588401e-06 
   79       1.920487819297e+03       3.995678137601e-01       1.858200314054e-03      -8.810504206972e+00       1.203474385538e-07       5.776541730700e-04      -1.703091493556e-06 
   80       1.944176848216e+03       4.127982907505e-01       1.905714774770e-03      -9.295178328934e+00       1.196586867137e-07       5.695886538938e-04      -1.806377677265e-06 
   81       1.968079048698e+03       4.261617500705e-01       1.953847083591e-03      -9.788717288888e+00       1.189769675797e-07       5.617769626925e-04      -1.919686122257e-06 
   82       1.992188625448e+03       4.396491848885e-01       2.002596612164e-03      -1.029075905120e+01       1.182996674916e-07       5.541976356799e-04      -2.036232466824e-06 
   83       2.016496852174e+03       4.532512369806e-01       2.051962594431e-03      -1.080092059072e+01       1.176203512207e-07       5.468144761001e-04      -2.148156059681e-06 
   84       2.040995598751e+03       4.669578888219e-01       2.101944175086e-03      -1.131881865041e+01       1.169318577097e-07       5.395896808185e-04      -2.248109177181e-06 
   85       2.065688879454e+03       4.807574866096e-01       2.152540574014e-03      -1.184413651802e+01       1.162379948736e-07       5.325298083067e-04      -2.334632056231e-06 
   86       2.090582981209e+03       4.946375500064e-01       2.203750941016e-03      -1.237656791073e+01       1.155447118005e-07       5.256489028051e-04      -2.407986617066e-06 
   87       2.115682899987e+03       5.085850556973e-01       2.255574301737e-03      -1.291579705135e+01       1.148565784050e-07       5.189545085007e-04      -2.468629586673e-06 
   88       2.140992267696e+03       5.225864297921e-01       2.308009554072e-03      -1.346149877030e+01       1.141765371731e-07       5.124470419545e-04      -2.517226947807e-06 
   89       2.166513279084e+03       5.366275402266e-01       2.361055464568e-03      -1.401333860768e+01       1.135056396254e-07       5.061191465940e-04      -2.554668755283e-06 
   90       2.192246618634e+03       5.506936891649e-01       2.414710664826e-03      -1.457097291531e+01       1.128427671392e-07       4.999550292690e-04      -2.582084319558e-06 
   91       2.218191387458e+03       5.647696054010e-01       2.468973647905e-03      -1.513404895877e+01       1.121843357720e-07       4.939297788734e-04      -2.600857757587e-06 
   92       2.244345030201e+03       5.788394367608e-01       2.523842764722e-03      -1.570220501945e+01       1.115239847269e-07       4.880086670308e-04      -2.612643910967e-06 
   93       2.270704682486e+03       5.928878350460e-01       2.579317325624e-03      -1.627507390481e+01       1.108552011091e-07       4.821584900261e-04      -2.619025275337e-06 
   94       2.297271603863e+03       6.069034140260e-01       2.635401102426e-03      -1.685229386140e+01       1.101808606340e-07       4.763861398820e-04      -2.620357351161e-06 
   95       2.324047279519e+03       6.208757999000e-01       2.692099348880e-03      -1.743349949948e+01       1.095059149297e-07       4.707073748185e-04      -2.616693841923e-06 
   96       2.351032006251e+03       6.347945923951e-01       2.749417753852e-03      -1.801831867785e+01       1.088345564045e-07       4.651352536861e-04      -2.608125711028e-06 
   97       2.378224838855e+03       6.486493721654e-01       2.807362452901e-03      -1.860637265270e+01       1.081700839769e-07       4.596798648314e-04      -2.594783504580e-06 
   98       2.405623536532e+03       6.624297081905e-01       2.865940039847e-03      -1.919727622642e+01       1.075147611747e-07       4.543480476481e-04      -2.576839724899e-06 
   99       2.433224509279e+03       6.761251651752e-01       2.925157578350e-03      -1.979063789646e+01       1.068696664421e-07       4.491431068167e-04      -2.554511254764e-06 
  100       2.461022764287e+03       6.897253109481e-01       2.985022613474e-03      -2.038606000410e+01       1.062345354892e-07       4.440645192308e-04      -2.528061832391e-06 
  101       2.489011852341e+03       7.032197238606e-01       3.045543183270e-03      -2.098313888333e+01       1.056075955213e-07       4.391076336109e-04      -2.497804577150e-06 
  102       2.517183814213e+03       7.165980001858e-01       3.106727830342e-03      -2.158146500966e+01       1.049853911842e-07       4.342633628057e-04      -2.464104566006e-06 
  103       2.545529127063e+03       7.298497615179e-01       3.168585613422e-03      -2.218062314893e+01       1.043626020619e-07       4.295178687799e-04      -2.427381460700e-06 
  104       2.574038832898e+03       7.429643478345e-01       3.231125057828e-03      -2.278018345503e+01       1.037340171896e-07       4.248575765115e-04      -2.388083501752e-06 
  105       2.602711366870e+03       7.559298335277e-01       3.294350820436e-03      -2.337967307271e+01       1.031015048006e-07       4.202860903550e-04      -2.346597534306e-06 
  106       2.631546555745e+03       7.687338916284e-01       3.358266593668e-03      -2.397860095836e+01       1.024685494292e-07       4.158100936902e-04      -2.303325770212e-06 
  107       2.660543488938e+03       7.813641001703e-01       3.422876126299e-03      -2.457646663728e+01       1.018381777623e-07       4.114341482938e-04      -2.258714722677e-06 
