# total lensed [l(l+1)/2pi] C_l's (units: [microK]^2)
# for l=2 to 2500, i.e. number of multipoles equal to 2499
#
# -> if you don't want to see such a header, set 'headers' to 'no' in input file
# -> for CMB lensing (d), these are C_l^dd for the deflection field.
#    Remember the conversion factors:
#    C_l^dd (deflection) = l(l+1) C_l^phi-phi
#    C_l^gg (shear/convergence) = 1/4 (l(l+1))^2 C_l^phi-phi
#
# 1:l     2:TT                     3:EE                     4:BB                     5:TE                     6:dd                     7:dT                     8:dE                 
    2       1.117563278902e+03       6.518978803719e-02       1.680021681907e-06       3.628351270881e+00       4.826982468562e-08       3.388773530451e-03      -1.753484228475e-05 
    3       1.041009322295e+03       1.162944486153e-01       3.362057018813e-06       4.696807682835e+00       6.015090112526e-08       3.412021321084e-03      -2.237592385104e-05 
    4       9.688797114709e+02       1.435828120420e-01       5.607829733440e-06       4.965542223012e+00       6.999695497950e-08       3.351949118732e-03      -2.375385376354e-05 
    5       9.120636275457e+02       1.414081177737e-01       8.419823152174e-06       4.748222705059e+00       7.854592795362e-08       3.259488178489e-03      -2.245439325578e-05 
    6       8.698820843046e+02       1.170871099756e-01       1.180097459887e-05       4.268164814088e+00       8.599138275108e-08       3.151132096420e-03      -1.915012126314e-05 
    7       8.394052262578e+02       8.362628796334e-02       1.575457389336e-05       3.679582705619e+00       9.258572590839e-08       3.036702276287e-03      -1.458013620210e-05 
    8       8.187153819483e+02       5.266799465063e-02       2.028415076334e-05       3.074948177962e+00       9.852904694668e-08       2.922594011039e-03      -9.476952487320e-06 
    9       8.056068960625e+02       3.074246070176e-02       2.539335557400e-05       2.510622907647e+00       1.039069047107e-07       2.811411362598e-03      -4.505946820283e-06 
   10       7.980291282479e+02       1.887947641123e-02       3.108583803203e-05       2.022980702875e+00       1.087489500922e-07       2.703704587363e-03      -2.041103049896e-07 
   11       7.952112549368e+02       1.445230025952e-02       3.736512858694e-05       1.633159378941e+00       1.098205200958e-07       2.603275886708e-03       3.024056202593e-06 
   12       7.957577219300e+02       1.368468524893e-02       4.423452713116e-05       1.350329542506e+00       1.135099435513e-07       2.502712932062e-03       5.070151260262e-06 
   13       7.989196716117e+02       1.358153761240e-02       5.169700329511e-05       1.172860607306e+00       1.168236272668e-07       2.408082975644e-03       5.889452299143e-06 
   14       8.045289030878e+02       1.273781756993e-02       5.975511215721e-05       1.088861822476e+00       1.198051249534e-07       2.324899349692e-03       5.624161074118e-06 
   15       8.114943775037e+02       1.114403448207e-02       6.841092856079e-05       1.079205404210e+00       1.224895120904e-07       2.241796653805e-03       4.488664257831e-06 
   16       8.198541686335e+02       9.479129566959e-03       7.766600247434e-05       1.121172068756e+00       1.249054269571e-07       2.165671079295e-03       2.796070266640e-06 
   17       8.293056224593e+02       8.402924106296e-03       8.752133698027e-05       1.192469166685e+00       1.270794600293e-07       2.096359333778e-03       8.623310182878e-07 
   18       8.395119953991e+02       8.166800441671e-03       9.797737853084e-05       1.274323162789e+00       1.289847370445e-07       2.030934050102e-03      -1.013821575300e-06 
   19       8.505980954487e+02       8.563082911133e-03       1.090340964250e-04       1.354356146492e+00       1.307897894381e-07       1.970488639969e-03      -2.611844439567e-06 
   20       8.623932727878e+02       9.176103079625e-03       1.206909082563e-04       1.420742501643e+00       1.323558526455e-07       1.912239950936e-03      -3.751085813859e-06 
   21       8.748079010898e+02       9.726065844338e-03       1.329469080483e-04       1.470133308794e+00       1.337696151433e-07       1.856774910271e-03      -4.352993763894e-06 
   22       8.875605303548e+02       9.999214158219e-03       1.458007773231e-04       1.502821152080e+00       1.350064201053e-07       1.803224942343e-03      -4.432700567852e-06 
   23       9.006865010303e+02       1.010590196119e-02       1.592510597368e-04       1.521419237722e+00       1.361359055115e-07       1.751264043818e-03      -4.055640076018e-06 
   24       9.141672206539e+02       1.028948194396e-02       1.732960717627e-04       1.530264117662e+00       1.371099686019e-07       1.699329266866e-03      -3.358714293089e-06 
   25       9.279933517052e+02       1.074165158446e-02       1.879342277462e-04       1.534219853497e+00       1.379827043143e-07       1.649729201594e-03      -2.478196307221e-06 
   26       9.420603437093e+02       1.162164159482e-02       2.031639289003e-04       1.538725560907e+00       1.387325487970e-07       1.604740303803e-03      -1.581031822050e-06 
   27       9.563985405579e+02       1.291438811006e-02       2.189838523029e-04       1.547595593688e+00       1.393862944169e-07       1.563057934108e-03      -7.951000648612e-07 
   28       9.710077337056e+02       1.454016392524e-02       2.353928825388e-04       1.563798920666e+00       1.399079620250e-07       1.521319396131e-03      -2.358070763418e-07 
   29       9.859269030721e+02       1.645372281320e-02       2.523904593582e-04       1.587606593706e+00       1.403703877196e-07       1.480307146679e-03       5.352326207563e-08 
   30       1.001114371336e+03       1.860589342750e-02       2.699763833679e-04       1.617956320033e+00       1.407939333460e-07       1.441729967513e-03       6.932319052130e-08 
   31       1.016452636300e+03       2.094212926064e-02       2.881508239653e-04       1.652860719854e+00       1.410989599222e-07       1.406530496230e-03      -1.653730581088e-07 
   32       1.031959219387e+03       2.345547463952e-02       3.069145842733e-04       1.688939926818e+00       1.413300805467e-07       1.374447983665e-03      -5.995067642339e-07 
   33       1.047636013934e+03       2.615284822317e-02       3.262690172770e-04       1.721558090372e+00       1.415155041664e-07       1.343824507455e-03      -1.145278515238e-06 
   34       1.063437540031e+03       2.903545795955e-02       3.462159753355e-04       1.745683282665e+00       1.416189741792e-07       1.312352842450e-03      -1.690772028204e-06 
   35       1.079383328712e+03       3.207824762069e-02       3.667576977673e-04       1.758784619952e+00       1.416721990036e-07       1.280515017970e-03      -2.168828019343e-06 
   36       1.095472838858e+03       3.524254909442e-02       3.878969636238e-04       1.758894270592e+00       1.416819012791e-07       1.249601510380e-03      -2.516500273011e-06 
   37       1.111678966887e+03       3.849562343091e-02       4.096369601167e-04       1.744288346951e+00       1.416090816576e-07       1.220673139774e-03      -2.672671564114e-06 
   38       1.128048720269e+03       4.186108492226e-02       4.319805722079e-04       1.715048638503e+00       1.414920069281e-07       1.193990940262e-03      -2.635919174959e-06 
   39       1.144628031435e+03       4.538556138067e-02       4.549309163194e-04       1.672040555529e+00       1.413663189078e-07       1.169202958323e-03      -2.434685763095e-06 
   40       1.161430059561e+03       4.912606815011e-02       4.784915663869e-04       1.616530011406e+00       1.412188053422e-07       1.145363926395e-03      -2.116118983820e-06 
   41       1.178442555746e+03       5.313791488937e-02       5.026662106990e-04       1.549999881873e+00       1.410026145629e-07       1.121296394816e-03      -1.739689565585e-06 
   42       1.195661776427e+03       5.743205738967e-02       5.274574209101e-04       1.473461718311e+00       1.407402826302e-07       1.097157657330e-03      -1.347201538698e-06 
   43       1.213063354409e+03       6.200500630028e-02       5.528675293161e-04       1.387966048815e+00       1.404571595364e-07       1.073448141073e-03      -9.829752186620e-07 
   44       1.230589269114e+03       6.685020689550e-02       5.788989677400e-04       1.294806594234e+00       1.401459287171e-07       1.050585705962e-03      -7.029640302622e-07 
   45       1.248174094377e+03       7.195976782186e-02       6.055538973087e-04       1.195113876855e+00       1.397788468159e-07       1.028876965844e-03      -5.610225928636e-07 
   46       1.265840065051e+03       7.733073507706e-02       6.328329605112e-04       1.088461134705e+00       1.393800943058e-07       1.008475445704e-03      -5.571346512595e-07 
   47       1.283625403369e+03       8.296035340330e-02       6.607361598686e-04       9.738633083170e-01       1.389778760517e-07       9.893635525300e-04      -6.684455825382e-07 
   48       1.301556341592e+03       8.884421366036e-02       6.892631792990e-04       8.501488942277e-01       1.385801219320e-07       9.713271440314e-04      -8.610845952873e-07 
   49       1.319645847925e+03       9.497616385303e-02       7.184133649086e-04       7.159485503799e-01       1.381683252268e-07       9.539245436797e-04      -1.088817535536e-06 
   50       1.337897629814e+03       1.013502801069e-01       7.481855934030e-04       5.699083932729e-01       1.377095722990e-07       9.366399380619e-04      -1.301808532547e-06 
   51       1.356322380783e+03       1.079676167247e-01       7.785778797747e-04       4.114245799748e-01       1.372179199955e-07       9.194972113104e-04      -1.480588159974e-06 
   52       1.374923741289e+03       1.148311345616e-01       8.095876299229e-04       2.400884238297e-01       1.367135640696e-07       9.026363345301e-04      -1.613307638963e-06 
   53       1.393692405383e+03       1.219438089924e-01       8.412117198106e-04       5.547832848994e-02       1.362035087089e-07       8.861388055781e-04      -1.686638632822e-06 
   54       1.412605094971e+03       1.293086378772e-01       8.734464709666e-04      -1.428410329540e-01       1.356779406368e-07       8.700172819638e-04      -1.685677717307e-06 
   55       1.431636490415e+03       1.369280502720e-01       9.062880312475e-04      -3.551568066619e-01       1.351186505089e-07       8.542494875681e-04      -1.599321936706e-06 
   56       1.450800842904e+03       1.448019422974e-01       9.397336840091e-04      -5.810732420963e-01       1.345392462824e-07       8.389208849200e-04      -1.438999340531e-06 
   57       1.470118902830e+03       1.529291672914e-01       9.737808212523e-04      -8.199150108684e-01       1.339573964844e-07       8.241153707433e-04      -1.226654987992e-06 
   58       1.489605359562e+03       1.613080772678e-01       1.008426558340e-03      -1.070872901518e+00       1.333820796580e-07       8.098682133340e-04      -9.904045662827e-07 
   59       1.509268320500e+03       1.699365075357e-01       1.043667725287e-03      -1.332998300169e+00       1.328113504789e-07       7.961587836442e-04      -7.651114161886e-07 
   60       1.529108790135e+03       1.788117613175e-01       1.079500858058e-03      -1.605197671186e+00       1.322299017658e-07       7.829029724029e-04      -5.929839393902e-07 
   61       1.549124898705e+03       1.879310413724e-01       1.115922877277e-03      -1.886496319564e+00       1.316172131746e-07       7.699938980663e-04      -5.133826817269e-07 
   62       1.569326875852e+03       1.972928928752e-01       1.152933322116e-03      -2.176911348069e+00       1.309828346941e-07       7.574587894865e-04      -5.267383185989e-07 
   63       1.589724528834e+03       2.068960585863e-01       1.190532604658e-03      -2.476765742264e+00       1.303419307530e-07       7.453405010747e-04      -6.196675893029e-07 
   64       1.610322426608e+03       2.167390592513e-01       1.228721379560e-03      -2.786439344145e+00       1.297046862413e-07       7.336494361662e-04      -7.743795483765e-07 
   65       1.631119529582e+03       2.268201924027e-01       1.267500557160e-03      -3.106371876906e+00       1.290750722639e-07       7.223593219865e-04      -9.682788687432e-07 
   66       1.652108819379e+03       2.371375311614e-01       1.306871316577e-03      -3.437065969697e+00       1.284495080620e-07       7.114028211161e-04      -1.173556060519e-06 
   67       1.673276928595e+03       2.476889230385e-01       1.346835118815e-03      -3.779090182388e+00       1.278154157972e-07       7.006669794569e-04      -1.356764605477e-06 
   68       1.694610589435e+03       2.584715721078e-01       1.387393728998e-03      -4.132942376978e+00       1.271574631679e-07       6.900332875029e-04      -1.486549316004e-06 
   69       1.716118324549e+03       2.694806898902e-01       1.428549259013e-03      -4.498600922692e+00       1.264830125766e-07       6.795230509401e-04      -1.560592833053e-06 
   70       1.737812506409e+03       2.807105676942e-01       1.470304157086e-03      -4.875887569209e+00       1.258040107447e-07       6.691874449407e-04      -1.586026151723e-06 
   71       1.759702734978e+03       2.921549574162e-01       1.512661212515e-03      -5.264598516761e+00       1.251294229577e-07       6.590648761438e-04      -1.572128315967e-06 
   72       1.781795641863e+03       3.038070596868e-01       1.555623569006e-03      -5.664503869198e+00       1.244645426686e-07       6.491792493953e-04      -1.530501145708e-06 
   73       1.804094694473e+03       3.156595120168e-01       1.599194738010e-03      -6.075347087048e+00       1.238102483318e-07       6.395381712992e-04      -1.475249169667e-06 
   74       1.826600000172e+03       3.277043769435e-01       1.643378612059e-03      -6.496844440587e+00       1.231622059488e-07       6.301310905794e-04      -1.423164763899e-06 
   75       1.849308110434e+03       3.399331301768e-01       1.688179478106e-03      -6.928684462899e+00       1.225100157992e-07       6.209273752524e-04      -1.393918496051e-06 
   76       1.872214832628e+03       3.523370721078e-01       1.733601228353e-03      -7.370548223014e+00       1.218418219999e-07       6.118922724196e-04      -1.405445505393e-06 
   77       1.895324690229e+03       3.649086751721e-01       1.779644797128e-03      -7.822175622365e+00       1.211622583941e-07       6.030444007019e-04      -1.458190115526e-06 
   78       1.918642839927e+03       3.776404617903e-01       1.826310278667e-03      -8.283310250303e+00       1.204792929157e-07       5.944102861029e-04      -1.546929322789e-06 
   79       1.942172085042e+03       3.905245996808e-01       1.873597685091e-03      -8.753679518472e+00       1.197988859401e-07       5.860067445805e-04      -1.665122114392e-06 
   80       1.965912741349e+03       4.035528986879e-01       1.921506943286e-03      -9.232994540804e+00       1.191245869955e-07       5.778398050039e-04      -1.804814517633e-06 
   81       1.989862502911e+03       4.167168076091e-01       1.970037891780e-03      -9.720950013516e+00       1.184571040145e-07       5.699035977857e-04      -1.956542120090e-06 
   82       2.014016307905e+03       4.300074110228e-01       2.019190277629e-03      -1.021722409511e+01       1.177938444135e-07       5.621792091865e-04      -2.109230060760e-06 
   83       2.038366204455e+03       4.434154261154e-01       2.068963753295e-03      -1.072147828636e+01       1.171284272907e-07       5.546335012947e-04      -2.250090492178e-06 
   84       2.062904608790e+03       4.569310398236e-01       2.119357868856e-03      -1.123337575839e+01       1.164537528171e-07       5.472320345457e-04      -2.367321551220e-06 
   85       2.087634994226e+03       4.705433961873e-01       2.170372053987e-03      -1.175264009077e+01       1.157735975573e-07       5.399842927008e-04      -2.459217779993e-06 
   86       2.112562736436e+03       4.842410177992e-01       2.222005627258e-03      -1.227900609621e+01       1.150938617078e-07       5.329074241443e-04      -2.527122594095e-06 
   87       2.137691802649e+03       4.980119521637e-01       2.274257797392e-03      -1.281220242552e+01       1.144190786463e-07       5.260124976228e-04      -2.572850754390e-06 
   88       2.163024674490e+03       5.118437658414e-01       2.327127660064e-03      -1.335195175761e+01       1.137521687421e-07       5.193038971304e-04      -2.598721259133e-06 
   89       2.188562270830e+03       5.257235385924e-01       2.380614194707e-03      -1.389797098963e+01       1.130941780056e-07       5.127786993407e-04      -2.607591053385e-06 
   90       2.214303870622e+03       5.396378575205e-01       2.434716261311e-03      -1.444997142692e+01       1.124440012249e-07       5.064260335817e-04      -2.602889555736e-06 
   91       2.240247035748e+03       5.535728112164e-01       2.489432597229e-03      -1.500765897313e+01       1.117980892309e-07       5.002264243565e-04      -2.588654002319e-06 
   92       2.266387533860e+03       5.675139839019e-01       2.544761813976e-03      -1.557073432022e+01       1.111501399380e-07       4.941511164089e-04      -2.569565608110e-06 
   93       2.292721090838e+03       5.814473005906e-01       2.600703373885e-03      -1.613888351759e+01       1.104937003150e-07       4.881720899408e-04      -2.549985480544e-06 
   94       2.319249117246e+03       5.953617206938e-01       2.657260695037e-03      -1.671174764393e+01       1.098316245923e-07       4.822962516469e-04      -2.530729497070e-06 
   95       2.345973704484e+03       6.092469405908e-01       2.714438509573e-03      -1.728894890414e+01       1.091688245510e-07       4.765376467414e-04      -2.511636847870e-06 
   96       2.372895820575e+03       6.230925844557e-01       2.772241935569e-03      -1.787009990110e+01       1.085094587107e-07       4.709071295235e-04      -2.492505547650e-06 
   97       2.400015258118e+03       6.368882100834e-01       2.830676487285e-03      -1.845480369365e+01       1.078567990514e-07       4.654120609816e-04      -2.473089694834e-06 
   98       2.427330582251e+03       6.506233147147e-01       2.889748085419e-03      -1.904265385454e+01       1.072130901615e-07       4.600559983748e-04      -2.453096666246e-06 
   99       2.454839078602e+03       6.642873408622e-01       2.949463067361e-03      -1.963323452847e+01       1.065794006476e-07       4.548383767916e-04      -2.432184247269e-06 
  100       2.482536701254e+03       6.778696821356e-01       3.009828197445e-03      -2.022612049003e+01       1.059554666452e-07       4.497541826844e-04      -2.409957697477e-06 
  101       2.510418020697e+03       6.913596890673e-01       3.070850677203e-03      -2.082087720167e+01       1.053395272671e-07       4.447936193823e-04      -2.385966751754e-06 
  102       2.538476171790e+03       7.047466749380e-01       3.132538155613e-03      -2.141706087173e+01       1.047281518276e-07       4.399417645797e-04      -2.359702556887e-06 
  103       2.566702801717e+03       7.180199216021e-01       3.194898739356e-03      -2.201421851241e+01       1.041160586792e-07       4.351782198023e-04      -2.330594543635e-06 
  104       2.595090010729e+03       7.311685088796e-01       3.257940121832e-03      -2.261189084159e+01       1.034980752620e-07       4.304835441733e-04      -2.298181706750e-06 
  105       2.623636585050e+03       7.441807639373e-01       3.321666814123e-03      -2.320962130998e+01       1.028760567925e-07       4.258608397741e-04      -2.262673221217e-06 
  106       2.652342512843e+03       7.570447480410e-01       3.386082557347e-03      -2.380694840722e+01       1.022534633843e-07       4.213178580011e-04      -2.224495114213e-06 
  107       2.681207036834e+03       7.697484301873e-01       3.451191171048e-03      -2.440340301502e+01       1.016333010908e-07       4.168604354090e-04      -2.184128095902e-06 
