# Rescaled matter transfer functions [-T_i(k)/k^2] for adiabatic (AD) mode (normalized to initial curvature=1) at redshift z=0
# for k=1.01544e-05 to 156.024 h/Mpc,
# number of wavenumbers equal to 620
# T_i   stands for (delta rho_i/rho_i)(k,z) with above normalization 
# The rescaling factor [-1/k^2] with k in 1/Mpc is here to match the CMBFAST/CAMB output convention
#
#
#    1:k (h/Mpc)              2:-T_cdm/k2              3:-T_b/k2                4:-T_g/k2                5:-T_ur/k2               6:-T_ncdm/k2             7:-T_tot/k2          
       1.015444903842e-05       2.086877703048e+07       2.119401884956e+07       2.824410813094e+07       2.824361267678e+07       2.118911131531e+07       5.922978664203e+06 
       2.299612104578e-05       2.086940745521e+07       2.119343087746e+07       2.818318861164e+07       2.818065220190e+07       2.118835822455e+07       5.922972262581e+06 
       3.588197922925e-05       2.087052266002e+07       2.119238026925e+07       2.807491049998e+07       2.806875467884e+07       2.118701337048e+07       5.922960174384e+06 
       4.884648045962e-05       2.087213094905e+07       2.119086298145e+07       2.791881631814e+07       2.790746119705e+07       2.118507012256e+07       5.922942927193e+06 
       6.192464195695e-05       2.087423949291e+07       2.118886767169e+07       2.771416784478e+07       2.769602920371e+07       2.118251315111e+07       5.922920561826e+06 
       7.515235163443e-05       2.087685886867e+07       2.118637964856e+07       2.745995652550e+07       2.743344435453e+07       2.117932230573e+07       5.922893136995e+06 
       8.856668822679e-05       2.088000217401e+07       2.118337985480e+07       2.715490985123e+07       2.711842771235e+07       2.117547150126e+07       5.922860758196e+06 
       1.022062554401e-04       2.088368493009e+07       2.117984482284e+07       2.679750080932e+07       2.674944758467e+07       2.117092854227e+07       5.922823502853e+06 
       1.161115343925e-04       2.088792558912e+07       2.117574700322e+07       2.638596335851e+07       2.632473656517e+07       2.116565528853e+07       5.922781608183e+06 
       1.303252586485e-04       2.089274456575e+07       2.117105387440e+07       2.591831177982e+07       2.584231388019e+07       2.115960656059e+07       5.922735300252e+06 
       1.448928161580e-04       2.089816311992e+07       2.116572683195e+07       2.539236800315e+07       2.530001684313e+07       2.115272878011e+07       5.922684568746e+06 
       1.598626823566e-04       2.090420589844e+07       2.115972393097e+07       2.480580660267e+07       2.469555033024e+07       2.114496241389e+07       5.922630025423e+06 
       1.752868885163e-04       2.091089674808e+07       2.115299608152e+07       2.415620841496e+07       2.402654462158e+07       2.113623781673e+07       5.922571934919e+06 
       1.912215290866e-04       2.091825954072e+07       2.114548848064e+07       2.344113649379e+07       2.329064245266e+07       2.112647622878e+07       5.922510687251e+06 
       2.077273111378e-04       2.092631759974e+07       2.113714107310e+07       2.265824732872e+07       2.248561363064e+07       2.111558974872e+07       5.922447002956e+06 
       2.248701479943e-04       2.093508999098e+07       2.112788632605e+07       2.180542372287e+07       2.160950215781e+07       2.110347850800e+07       5.922381329675e+06 
       2.427217975539e-04       2.094459148202e+07       2.111765141246e+07       2.088095765339e+07       2.066082450100e+07       2.109003215432e+07       5.922314430585e+06 
       2.613605434252e-04       2.095482779054e+07       2.110635650124e+07       1.988378784598e+07       1.963881709870e+07       2.107512734008e+07       5.922246790574e+06 
       2.808719136204e-04       2.096579320338e+07       2.109391656786e+07       1.881379925423e+07       1.854375307316e+07       2.105862859190e+07       5.922178881400e+06 
       3.013494267870e-04       2.097746534355e+07       2.108024177355e+07       1.767218625506e+07       1.737732969320e+07       2.104038757745e+07       5.922110834445e+06 
       3.228953494968e-04       2.098980032278e+07       2.106523989474e+07       1.646190184378e+07       1.614313642968e+07       2.102024428252e+07       5.922042437056e+06 
       3.456214395331e-04       2.100272395142e+07       2.104881678180e+07       1.518818412899e+07       1.484719558625e+07       2.099802604931e+07       5.921972228719e+06 
       3.696496390561e-04       2.101612450902e+07       2.103088056651e+07       1.385914309747e+07       1.349856757273e+07       2.097355016266e+07       5.921897180885e+06 
       3.951126677301e-04       2.102984336057e+07       2.101134589754e+07       1.248638528114e+07       1.210997924035e+07       2.094662630586e+07       5.921811798873e+06 
       4.221544493416e-04       2.104366452458e+07       2.099013904524e+07       1.108560674135e+07       1.069840828339e+07       2.091705972729e+07       5.921706743969e+06 
       4.509302866122e-04       2.105730518450e+07       2.096720496322e+07       9.677070950953e+06       9.285513734153e+06       2.088465630685e+07       5.921567180932e+06 
       4.816066790341e-04       2.107040668914e+07       2.094251439144e+07       8.285779209238e+06       7.897744765744e+06       2.084922755133e+07       5.921370232063e+06 
       5.143606600048e-04       2.108253145349e+07       2.091607349720e+07       6.941182431894e+06       6.565908838655e+06       2.081059836187e+07       5.921082382278e+06 
       5.493785161642e-04       2.109316460027e+07       2.088793106097e+07       5.676131729565e+06       5.323926240311e+06       2.076861263679e+07       5.920655744289e+06 
       5.868537491850e-04       2.110172905086e+07       2.085818685001e+07       4.524811638701e+06       4.206511328482e+06       2.072314049857e+07       5.920024903067e+06 
       6.269841554110e-04       2.110761260645e+07       2.082699350110e+07       3.519501422777e+06       3.245601636249e+06       2.067408013217e+07       5.919103528077e+06 
       6.699679394240e-04       2.111021448078e+07       2.079455445620e+07       2.686162130827e+06       2.465616454659e+06       2.062135689900e+07       5.917783276024e+06 
       7.159988503610e-04       2.110900761403e+07       2.076111220783e+07       2.039290194424e+06       1.878057469068e+06       2.056491439067e+07       5.915935753382e+06 
       7.652604369651e-04       2.110361278284e+07       2.072692682510e+07       1.577055655887e+06       1.476587991238e+06       2.050469813872e+07       5.913420058108e+06 
       8.179196534491e-04       2.109386856732e+07       2.069224319363e+07       1.278311025509e+06       1.234352478277e+06       2.044063036009e+07       5.910096869088e+06 
       8.741201969013e-04       2.107987870789e+07       2.065725317822e+07       1.103431228686e+06       1.105605174958e+06       2.037258234464e+07       5.905849904316e+06 
       9.339760902432e-04       2.106200942294e+07       2.062205760748e+07       1.000499905799e+06       1.033172322360e+06       2.030034913222e+07       5.900610955293e+06 
       9.975661072311e-04       2.104082014863e+07       2.058664059031e+07       9.168305060085e+05       9.615037304441e+05       2.022363844607e+07       5.894381836245e+06 
       1.064929633980e-03       2.101692892258e+07       2.055086644801e+07       8.131840501065e+05       8.521777671341e+05       2.014208329597e+07       5.887242587176e+06 
       1.136064455748e-03       2.099084424026e+07       2.051450506348e+07       6.753572615446e+05       6.958664803132e+05       2.005528267627e+07       5.879335679795e+06 
       1.210926754411e-03       2.096282545644e+07       2.047728298812e+07       5.169063904729e+05       5.140091843587e+05       1.996286654413e+07       5.870823706748e+06 
       1.289433336101e-03       2.093283527439e+07       2.043894415118e+07       3.695384991812e+05       3.467689585019e+05       1.986456658143e+07       5.861830743382e+06 
       1.371465835154e-03       2.090057110641e+07       2.039924641553e+07       2.640193061291e+05       2.309661548301e+05       1.976022526716e+07       5.852379109679e+06 
       1.456876418622e-03       2.086577565885e+07       2.035812187414e+07       2.113740729570e+05       1.791779511229e+05       1.964994103207e+07       5.842416167583e+06 
       1.545494387629e-03       2.082833230146e+07       2.031556605715e+07       1.961480097560e+05       1.729599659101e+05       1.953396380540e+07       5.831830678298e+06 
       1.637133052603e-03       2.078833981197e+07       2.027158970663e+07       1.872071542208e+05       1.757472082373e+05       1.941263883068e+07       5.820526208181e+06 
       1.731596334603e-03       2.074607589403e+07       2.022620769171e+07       1.594264569202e+05       1.575194465105e+05       1.928637941164e+07       5.808493527701e+06 
       1.828684681406e-03       2.070184177617e+07       2.017942520221e+07       1.105465322930e+05       1.136812271111e+05       1.915563610676e+07       5.795820771695e+06 
       1.928200045909e-03       2.065582466809e+07       2.013124656585e+07       6.003014669301e+04       6.396553901256e+04       1.902088770919e+07       5.782638636646e+06 
       2.029949823245e-03       2.060806721207e+07       2.008168991778e+07       3.086280540038e+04       3.285537566743e+04       1.888263734317e+07       5.769039648620e+06 
       2.133749761437e-03       2.055855833128e+07       2.003080155903e+07       2.965520855152e+04       2.838109234548e+04       1.874140959974e+07       5.755036590991e+06 
       2.239425940808e-03       2.050734413518e+07       1.997864900249e+07       4.205543620348e+04       3.727351633224e+04       1.859772827899e+07       5.740588232688e+06 
       2.346815961635e-03       2.045457205265e+07       1.992530857638e+07       4.670927715006e+04       3.931421500475e+04       1.845209144612e+07       5.725668160853e+06 
       2.455769494923e-03       2.040043694139e+07       1.987085266201e+07       3.413140987183e+04       2.614848023360e+04       1.830494948220e+07       5.710311789072e+06 
       2.566148346526e-03       2.034509770147e+07       1.981535011959e+07       1.296232710315e+04       6.707434659016e+03       1.815669951628e+07       5.694602624345e+06 
       2.677826168531e-03       2.028863819414e+07       1.975886978519e+07      -9.768762395395e+02      -4.402920223687e+03       1.800768597972e+07       5.678614712930e+06 
       2.790687930055e-03       2.023110298922e+07       1.970148524032e+07      -7.095941197279e+02      -2.302643549579e+03       1.785820577026e+07       5.662371220197e+06 
       2.904629236932e-03       2.017256196068e+07       1.964327801438e+07       6.713621371451e+03       4.675870943695e+03       1.770851381290e+07       5.645857862045e+06 
       3.019555568695e-03       2.011312026803e+07       1.958432063926e+07       9.428720663049e+03       5.399429919750e+03       1.755881143697e+07       5.629066884255e+06 
       3.135381483127e-03       2.005290466061e+07       1.952468910505e+07       3.173126721342e+03      -5.244045755721e+02       1.740926369220e+07       5.612032256498e+06 
       3.252029823794e-03       1.999199850173e+07       1.946444010753e+07      -6.127872153234e+03       3.367619161714e+03       1.726021771665e+07       5.594808078044e+06 
       3.369430954371e-03       1.993046744344e+07       1.940364735563e+07      -1.067595340014e+04       1.987127864434e+04       1.711158876605e+07       5.577437152128e+06 
       3.487522034741e-03       1.986834883102e+07       1.934236536927e+07      -9.450271993198e+03       3.619722962994e+04       1.696354083371e+07       5.559922976271e+06 
       3.606246347358e-03       1.980570478811e+07       1.928065337912e+07      -7.780567799359e+03       4.160145022667e+04       1.681625140778e+07       5.542256708993e+06 
       3.725552677779e-03       1.974261001357e+07       1.921856211015e+07      -9.782417841081e+03       3.681649505475e+04       1.666986826263e+07       5.524445797043e+06 
       3.845394750074e-03       1.967913433846e+07       1.915613898573e+07      -1.339162405309e+04       3.050272885080e+04       1.652451561150e+07       5.506522532774e+06 
       3.965730715718e-03       1.961532118690e+07       1.909342365750e+07      -1.355156924620e+04       2.954749819199e+04       1.638029259970e+07       5.488519936682e+06 
       4.086522693272e-03       1.955120207755e+07       1.903045567365e+07      -8.918148621984e+03       3.326334318689e+04       1.623728250624e+07       5.470450727495e+06 
       4.207736355385e-03       1.948681034240e+07       1.896726976544e+07      -3.674771270636e+03       3.597452562402e+04       1.609555104360e+07       5.452308828687e+06 
       4.329340559315e-03       1.942219062114e+07       1.890389803486e+07      -2.555565595307e+03       3.395816910155e+04       1.595514973622e+07       5.434092431412e+06 
       4.451307017038e-03       1.935738838588e+07       1.884036959857e+07      -5.450533350111e+03       2.909084036148e+04       1.581611708659e+07       5.415817609172e+06 
       4.573610001132e-03       1.929243315002e+07       1.877670727651e+07      -2.795551877014e+04      -2.836491894757e+04       1.567847660365e+07       5.397504862441e+06 
       4.696226082769e-03       1.922734573955e+07       1.871293533805e+07      -2.642591255916e+04      -2.681289692460e+04       1.554224383882e+07       5.379171877463e+06 
       4.819133898432e-03       1.916215754319e+07       1.864908738903e+07      -2.501051971653e+04      -2.537676439214e+04       1.540743457117e+07       5.360816541075e+06 
       4.942313942219e-03       1.909688475815e+07       1.858517475785e+07      -2.369905320653e+04      -2.404607747281e+04       1.527403711620e+07       5.342431842427e+06 
       5.065748380903e-03       1.903155719824e+07       1.852121782876e+07      -2.248184269207e+04      -2.281102616386e+04       1.514204032069e+07       5.324025464633e+06 
       5.189420889192e-03       1.896620070006e+07       1.845723801769e+07      -2.135009947357e+04      -2.166269743870e+04       1.501142684192e+07       5.305614378442e+06 
       5.313316502899e-03       1.890082708863e+07       1.839324995755e+07      -2.029619495383e+04      -2.059335176828e+04       1.488216768595e+07       5.287208757457e+06 
       5.437421487969e-03       1.883544918406e+07       1.832927041270e+07      -1.931355537530e+04      -1.959631614595e+04       1.475423007690e+07       5.268807991249e+06 
       5.561723223574e-03       1.877008479277e+07       1.826531616702e+07      -1.839628709516e+04      -1.866560782796e+04       1.462757771612e+07       5.250408152170e+06 
       5.686210097639e-03       1.870475456074e+07       1.820140292525e+07      -1.753888692000e+04      -1.779564350737e+04       1.450217007700e+07       5.232012897464e+06 
       5.810871413408e-03       1.863946683234e+07       1.813753637335e+07      -1.673626598843e+04      -1.698126216008e+04       1.437795701609e+07       5.213631116668e+06 
       5.935697305770e-03       1.857424591204e+07       1.807374216544e+07      -1.598392665497e+04      -1.621790140185e+04       1.425490400767e+07       5.195275626822e+06 
       6.060678666262e-03       1.850908926022e+07       1.801002095721e+07      -1.527795381627e+04      -1.550158735488e+04       1.413295771953e+07       5.176943661969e+06 
       6.185807075751e-03       1.844400829787e+07       1.794638361900e+07      -1.461485696553e+04      -1.482877642420e+04       1.401207500637e+07       5.158631570000e+06 
       6.311074743956e-03       1.837901601572e+07       1.788283937697e+07      -1.399134193635e+04      -1.419612623805e+04       1.389221475507e+07       5.140340387421e+06 
       6.436474455026e-03       1.831412356746e+07       1.781939630732e+07      -1.340432820503e+04      -1.360051254581e+04       1.377333868769e+07       5.122077681734e+06 
       6.561999518536e-03       1.824933354490e+07       1.775605715090e+07      -1.285103587343e+04      -1.303911566636e+04       1.365540916633e+07       5.103849214208e+06 
       6.687643725281e-03       1.818465833757e+07       1.769283560931e+07      -1.232905162315e+04      -1.250948618903e+04       1.353840155916e+07       5.085657512379e+06 
       6.813401307367e-03       1.812009578528e+07       1.762972889127e+07      -1.183619882239e+04      -1.200941436697e+04       1.342228374125e+07       5.067496698540e+06 
       6.939266902130e-03       1.805565806733e+07       1.756674620268e+07      -1.137043162748e+04      -1.153682419631e+04       1.330703735591e+07       5.049367621099e+06 
       7.065235519475e-03       1.799135115357e+07       1.750389100727e+07      -1.092980202905e+04      -1.108974003353e+04       1.319264412404e+07       5.031275077203e+06 
       7.191302512280e-03       1.792717995960e+07       1.744116821944e+07      -1.051253729786e+04      -1.066636387703e+04       1.307909051625e+07       5.013224630885e+06 
       7.317463549542e-03       1.786314247867e+07       1.737857717008e+07      -1.011707975426e+04      -1.026511483906e+04       1.296636206646e+07       4.995215462281e+06 
       7.443714591984e-03       1.779924823436e+07       1.731612732389e+07      -9.742032619450e+03      -9.884574884243e+03       1.285445429446e+07       4.977246150584e+06 
       7.570051869871e-03       1.773550220679e+07       1.725382221810e+07      -9.386071465612e+03      -9.523399972912e+03       1.274335981988e+07       4.959315817204e+06 
       7.696471862808e-03       1.767190741355e+07       1.719166369982e+07      -9.047924698589e+03      -9.180300441867e+03       1.263307100119e+07       4.941427576152e+06 
       7.822971281335e-03       1.760846636310e+07       1.712965472659e+07      -8.726422601287e+03      -8.854089945021e+03       1.252358126999e+07       4.923585655809e+06 
       7.949547050121e-03       1.754517966635e+07       1.706779730591e+07      -8.420529662492e+03      -8.543717624151e+03       1.241488312020e+07       4.905790290194e+06 
       8.076196292620e-03       1.748205035020e+07       1.700609507928e+07      -8.129316189212e+03      -8.248239608294e+03       1.230696952098e+07       4.888039139228e+06 
       8.202916317039e-03       1.741908354896e+07       1.694455252979e+07      -7.851899006184e+03      -7.966759598711e+03       1.219983294648e+07       4.870331614247e+06 
       8.329704603489e-03       1.735628126175e+07       1.688317034238e+07      -7.587421126388e+03      -7.698408432159e+03       1.209346249701e+07       4.852669947950e+06 
       8.456558792215e-03       1.729364926579e+07       1.682195472689e+07      -7.335091575028e+03      -7.442383896263e+03       1.198784962425e+07       4.835058680653e+06 
       8.583476672800e-03       1.723118182384e+07       1.676090084274e+07      -7.094199995836e+03      -7.197965141008e+03       1.188297747582e+07       4.817496392192e+06 
       8.710456174249e-03       1.716888070444e+07       1.670001051275e+07      -6.864109195070e+03      -6.964505260846e+03       1.177883349512e+07       4.799980992358e+06 
       8.837495355886e-03       1.710675301881e+07       1.663929002886e+07      -6.644214975676e+03      -6.741391046677e+03       1.167540780828e+07       4.782512671526e+06 
       8.964592398969e-03       1.704479601522e+07       1.657873536990e+07      -6.433924527006e+03      -6.528021243101e+03       1.157268405249e+07       4.765091916527e+06 
       9.091745598982e-03       1.698301168897e+07       1.651834837474e+07      -6.232684720470e+03      -6.323834893751e+03       1.147065075876e+07       4.747721692409e+06 
       9.218953358525e-03       1.692139953652e+07       1.645812894216e+07      -6.040000048168e+03      -6.128329185850e+03       1.136929655935e+07       4.730402117805e+06 
