# Rescaled matter transfer functions [-T_i(k)/k^2] for adiabatic (AD) mode (normalized to initial curvature=1) at redshift z=0
# for k=1.03233e-05 to 167.815 h/Mpc,
# number of wavenumbers equal to 627
# T_i   stands for (delta rho_i/rho_i)(k,z) with above normalization 
# The rescaling factor [-1/k^2] with k in 1/Mpc is here to match the CMBFAST/CAMB output convention
#
#
#    1:k (h/Mpc)              2:-T_cdm/k2              3:-T_b/k2                4:-T_g/k2                5:-T_ur/k2               6:-T_ncdm/k2             7:-T_tot/k2          
       1.032330878311e-05       1.939629295318e+07       1.957610979868e+07       2.608797326522e+07       2.608751485475e+07       1.957157595211e+07       5.882542961338e+06 
       2.301432962598e-05       1.939646199701e+07       1.957597781037e+07       2.603423993951e+07       2.603196557028e+07       1.957129346990e+07       5.882530573396e+06 
       3.574874831192e-05       1.939675002990e+07       1.957572972202e+07       2.593943156342e+07       2.593396069505e+07       1.957077922998e+07       5.882504829737e+06 
       4.855982284314e-05       1.939716222665e+07       1.957537302082e+07       2.580315032855e+07       2.579310011564e+07       1.957003842679e+07       5.882467512924e+06 
       6.148134595326e-05       1.939770293602e+07       1.957490316653e+07       2.562474255033e+07       2.560872536919e+07       1.956906300288e+07       5.882418499200e+06 
       7.454793764011e-05       1.939837693659e+07       1.957431702003e+07       2.540332036271e+07       2.537994221369e+07       1.956784501438e+07       5.882357758329e+06 
       8.779534679828e-05       1.939917941941e+07       1.957361050094e+07       2.513776404090e+07       2.510562338845e+07       1.956637420581e+07       5.882283194623e+06 
       1.012607658544e-04       1.940012675166e+07       1.957277546532e+07       2.482672439441e+07       2.478441276293e+07       1.956463477483e+07       5.882196241590e+06 
       1.149831623390e-04       1.940121270867e+07       1.957180554870e+07       2.446864060902e+07       2.441474493009e+07       1.956261107499e+07       5.882093983995e+06 
       1.290036313604e-04       1.940245179667e+07       1.957069067640e+07       2.406174677896e+07       2.399485473892e+07       1.956028194976e+07       5.881976964272e+06 
       1.433657729580e-04       1.940384937963e+07       1.956942067050e+07       2.360409971125e+07       2.352280633435e+07       1.955762413021e+07       5.881843804567e+06 
       1.581160982668e-04       1.940540921873e+07       1.956798299852e+07       2.309360406988e+07       2.299652421211e+07       1.955460972492e+07       5.881692486813e+06 
       1.733044682872e-04       1.940714310811e+07       1.956636355192e+07       2.252805800622e+07       2.241384135798e+07       1.955120669714e+07       5.881522181973e+06 
       1.889845687494e-04       1.940905596231e+07       1.956454609460e+07       2.190521070771e+07       2.177256352033e+07       1.954737795166e+07       5.881330417957e+06 
       2.052144240265e-04       1.941115760817e+07       1.956251189317e+07       2.122284027630e+07       2.107055586800e+07       1.954308053165e+07       5.881115411221e+06 
       2.220569521581e-04       1.941345572785e+07       1.956023956702e+07       2.047886515273e+07       2.030585908682e+07       1.953826497628e+07       5.880874647893e+06 
       2.395805616743e-04       1.941595753282e+07       1.955770357642e+07       1.967147952817e+07       1.947683952858e+07       1.953287320920e+07       5.880605196933e+06 
       2.578597888579e-04       1.941866715541e+07       1.955487901705e+07       1.879934371144e+07       1.858239209286e+07       1.952684264245e+07       5.880303490972e+06 
       2.769759711429e-04       1.942158787745e+07       1.955173247919e+07       1.786181152924e+07       1.762217747277e+07       1.952009624378e+07       5.879965444954e+06 
       2.970179482262e-04       1.942472279726e+07       1.954822934270e+07       1.685922790054e+07       1.659694226321e+07       1.951254888770e+07       5.879587271352e+06 
       3.180827768570e-04       1.942806416347e+07       1.954433010162e+07       1.579328990748e+07       1.550889183227e+07       1.950410262565e+07       5.879162935010e+06 
       3.402764378175e-04       1.943160056194e+07       1.953999033112e+07       1.466746998429e+07       1.436213723371e+07       1.949464541611e+07       5.878686217600e+06 
       3.637145039639e-04       1.943530938823e+07       1.953516095229e+07       1.348751609640e+07       1.316320410655e+07       1.948405003573e+07       5.878149118329e+06 
       3.885227261229e-04       1.943916095674e+07       1.952978611481e+07       1.226198643335e+07       1.192157838995e+07       1.947217042937e+07       5.877543798793e+06 
       4.148374790385e-04       1.944310178859e+07       1.952380616162e+07       1.100279822231e+07       1.065025616079e+07       1.945884300305e+07       5.876858295067e+06 
       4.428059927733e-04       1.944706442745e+07       1.951715473110e+07       9.725707038308e+06       9.366203023346e+06       1.944388194528e+07       5.876080515968e+06 
       4.725862768816e-04       1.945095257664e+07       1.950976053104e+07       8.450636347363e+06       8.090623302368e+06       1.942707925360e+07       5.875194020726e+06 
       5.043466271475e-04       1.945464218405e+07       1.950154634032e+07       7.201649101863e+06       6.848857548701e+06       1.940820190308e+07       5.874180094100e+06 
       5.382645907986e-04       1.945797499960e+07       1.949243184551e+07       6.006425573493e+06       5.669706066274e+06       1.938699320972e+07       5.873016115459e+06 
       5.745252604202e-04       1.946075167129e+07       1.948233103655e+07       4.894964796583e+06       4.583931137913e+06       1.936316908313e+07       5.871673854459e+06 
       6.133187753077e-04       1.946273538720e+07       1.947115765755e+07       3.897332814121e+06       3.621751613676e+06       1.933642297536e+07       5.870119669391e+06 
       6.548369385810e-04       1.946365369220e+07       1.945882375339e+07       3.040363095187e+06       2.809244304729e+06       1.930642501743e+07       5.868313701977e+06 
       6.992689154395e-04       1.946319802933e+07       1.944524153454e+07       2.343467834013e+06       2.163884991567e+06       1.927282576540e+07       5.866209893910e+06 
       7.467960660388e-04       1.946104616045e+07       1.943032331335e+07       1.814138314948e+06       1.689887700900e+06       1.923525974724e+07       5.863754967596e+06 
       7.975860833042e-04       1.945687919828e+07       1.941398595834e+07       1.444225974536e+06       1.374560636643e+06       1.919335569908e+07       5.860892384308e+06 
       8.517867403150e-04       1.945040400548e+07       1.939614654579e+07       1.208520055418e+06       1.187324516790e+06       1.914674003583e+07       5.857563226350e+06 
       9.095196820706e-04       1.944137680850e+07       1.937672556207e+07       1.067227207095e+06       1.083070032930e+06       1.909505038226e+07       5.853711472182e+06 
       9.708747924186e-04       1.942963090273e+07       1.935564554372e+07       9.732078931632e+05       1.010632305888e+06       1.903794626149e+07       5.849289749922e+06 
       1.035905696766e-03       1.941507651885e+07       1.933283362597e+07       8.831501421563e+05       9.252771468363e+05       1.897512508822e+07       5.844264013472e+06 
       1.104626901547e-03       1.939770657739e+07       1.930822180896e+07       7.695280470248e+05       8.015417538322e+05       1.890633619823e+07       5.838617902596e+06 
       1.177012918272e-03       1.937755975709e+07       1.928175406447e+07       6.283586412565e+05       6.408962538616e+05       1.883140077671e+07       5.832350523204e+06 
       1.252999494743e-03       1.935469519904e+07       1.925339016594e+07       4.780227235992e+05       4.691943926417e+05       1.875022634716e+07       5.825470577433e+06 
       1.332486822317e-03       1.932912465997e+07       1.922307865514e+07       3.478486600440e+05       3.228834966680e+05       1.866279088851e+07       5.817974956334e+06 
       1.415344359384e-03       1.930084973070e+07       1.919081781842e+07       2.609118734791e+05       2.293474408522e+05       1.856920064252e+07       5.809851992601e+06 
       1.501416753535e-03       1.926990293714e+07       1.915668235441e+07       2.202062137219e+05       1.917401136101e+05       1.846971206773e+07       5.801082709489e+06 
       1.590530283027e-03       1.923627631800e+07       1.912072442859e+07       2.070501681588e+05       1.879295661616e+05       1.836463803544e+07       5.791611244898e+06 
       1.682499270248e-03       1.920001018052e+07       1.908300754118e+07       1.935953865577e+05       1.851470008837e+05       1.825436683395e+07       5.781371685287e+06 
       1.777132022643e-03       1.916121900535e+07       1.904360052437e+07       1.614533507881e+05       1.610802480719e+05       1.813934298500e+07       5.770306995329e+06 
       1.874235996063e-03       1.912009941030e+07       1.900257227763e+07       1.131364149972e+05       1.166766830135e+05       1.802004705299e+07       5.758388748873e+06 
       1.973622019026e-03       1.907691979499e+07       1.895998679313e+07       6.762326485727e+04       7.141941245345e+04       1.789697458959e+07       5.745632189196e+06 
       2.075107540025e-03       1.903197527787e+07       1.891590797651e+07       4.359084792512e+04       4.531914397605e+04       1.777062534905e+07       5.732092390301e+06 
       2.178518951529e-03       1.898556144899e+07       1.887040104356e+07       4.398859778347e+04       4.253324110548e+04       1.764149018592e+07       5.717859894248e+06 
       2.283693101496e-03       1.893793708823e+07       1.882353255577e+07       5.458037744832e+04       4.982543531006e+04       1.751003844129e+07       5.703045404637e+06 
       2.390478130389e-03       1.888930860832e+07       1.877537482896e+07       5.695018332142e+04       4.987418548139e+04       1.737671233744e+07       5.687770048285e+06 
       2.498733776543e-03       1.883982000779e+07       1.872600410002e+07       4.389002177187e+04       3.648440593904e+04       1.724191780775e+07       5.672156131469e+06 
       2.608331282909e-03       1.878954327506e+07       1.867549636336e+07       2.357050930651e+04       1.798524121130e+04       1.710601590154e+07       5.656316342273e+06 
       2.719153020603e-03       1.873849274189e+07       1.862393105686e+07       9.845209223086e+03       7.029852565353e+03       1.696932448990e+07       5.640344775375e+06 
       2.831091924111e-03       1.868663526368e+07       1.857138908688e+07       8.893260517686e+03       7.866430653952e+03       1.683211684818e+07       5.624304832970e+06 
       2.944050812675e-03       1.863391441588e+07       1.851794930967e+07       1.483412819789e+04       1.344561356068e+04       1.669462107672e+07       5.608221843851e+06 
       3.057941654148e-03       1.858028584364e+07       1.846369620390e+07       1.720303145217e+04       1.392917640379e+04       1.655703128775e+07       5.592085963276e+06 
       3.172684812194e-03       1.852572735935e+07       1.840870519017e+07       1.152348249251e+04       7.716625301329e+03       1.641949894327e+07       5.575856172532e+06 
       3.288208305282e-03       1.847026524324e+07       1.835305752341e+07       2.303110533953e+03       8.418503502930e+03       1.628233978468e+07       5.559477380441e+06 
       3.404447096299e-03       1.841396271648e+07       1.829682577959e+07      -3.296830155530e+03       2.104464709021e+04       1.614552606414e+07       5.542888040814e+06 
       3.521342424333e-03       1.835691818620e+07       1.824007772499e+07      -3.248403664335e+03       3.591317930621e+04       1.600917988623e+07       5.526034035627e+06 
       3.638841184924e-03       1.829925036799e+07       1.818287414384e+07      -1.636798579207e+03       4.271712435102e+04       1.587346516366e+07       5.508878173891e+06 
       3.756895361297e-03       1.824108655130e+07       1.812526796843e+07      -2.874968106720e+03       3.979406651488e+04       1.573851931386e+07       5.491408529115e+06 
       3.875461506563e-03       1.818255261324e+07       1.806730697644e+07      -6.458729241286e+03       3.347263990340e+04       1.560445749250e+07       5.473644278808e+06 
       3.994500275189e-03       1.812376010719e+07       1.800903311738e+07      -8.087718663847e+03       3.081425477284e+04       1.547137392851e+07       5.455634503419e+06 
       4.113976000989e-03       1.806479333697e+07       1.795047988342e+07      -5.211707491249e+03       3.318378613750e+04       1.533934187180e+07       5.437450349647e+06 
       4.233856318347e-03       1.800571259423e+07       1.789168083081e+07      -2.287257852187e+02       3.634146190031e+04       1.520842285766e+07       5.419175941073e+06 
       4.354111823107e-03       1.794654829719e+07       1.783266721518e+07       2.223463239587e+03       3.586391335536e+04       1.507866635995e+07       5.400893466953e+06 
       4.474715769511e-03       1.788730007157e+07       1.777346262243e+07       4.267004858834e+02       3.166862930383e+04       1.495010645825e+07       5.382669260706e+06 
       4.595643799716e-03       1.782795562246e+07       1.771409663093e+07      -2.830050126626e+03       2.740171040243e+04       1.482277419372e+07       5.364548051547e+06 
       4.716873702543e-03       1.776848797498e+07       1.765459274108e+07      -2.128350947726e+04      -2.164988126540e+04       1.469668795080e+07       5.346541828669e+06 
       4.838385198396e-03       1.770886995196e+07       1.759497418795e+07      -2.015191329991e+04      -2.049893140824e+04       1.457185847723e+07       5.328639362595e+06 
       4.960159747514e-03       1.764908616657e+07       1.753526592637e+07      -1.910067633074e+04      -1.942973959534e+04       1.444829146307e+07       5.310799536391e+06 
       5.082180378991e-03       1.758912897606e+07       1.747548333065e+07      -1.812430796185e+04      -1.843668871193e+04       1.432597732871e+07       5.292966200095e+06 
       5.204431538259e-03       1.752902705802e+07       1.741565822537e+07      -1.721766143802e+04      -1.751451899230e+04       1.420491464786e+07       5.275085559694e+06 
       5.326898950945e-03       1.746880621243e+07       1.735579844106e+07      -1.637559842040e+04      -1.665799032840e+04       1.408507624776e+07       5.257106891741e+06 
       5.449569501274e-03       1.740851906683e+07       1.729592466207e+07      -1.559293417374e+04      -1.586182683814e+04       1.396644073837e+07       5.239002136550e+06 
       5.572431123356e-03       1.734822351832e+07       1.723605510444e+07      -1.486440854261e+04      -1.512068647576e+04       1.384898019272e+07       5.220767952910e+06 
       5.695472703915e-03       1.728797005220e+07       1.717620213811e+07      -1.418480847051e+04      -1.442928251687e+04       1.373265943148e+07       5.202424145562e+06 
       5.818683995157e-03       1.722780050624e+07       1.711637765944e+07      -1.354914002286e+04      -1.378255480847e+04       1.361744040997e+07       5.184011395685e+06 
       5.942055536648e-03       1.716774628481e+07       1.705659641652e+07      -1.295280817643e+04      -1.317584879594e+04       1.350328678083e+07       5.165584506202e+06 
       6.065578585177e-03       1.710781494553e+07       1.699686457169e+07      -1.239176688400e+04      -1.260506469814e+04       1.339015572113e+07       5.147198862493e+06 
       6.189245051740e-03       1.704800341361e+07       1.693719234868e+07      -1.186262503556e+04      -1.206676294471e+04       1.327800875561e+07       5.128903882551e+06 
       6.313047444829e-03       1.698829819971e+07       1.687758926025e+07      -1.136267168232e+04      -1.155818871185e+04       1.316680965228e+07       5.110733008638e+06 
       6.436978819359e-03       1.692867679687e+07       1.681806122654e+07      -1.088982648741e+04      -1.107722178175e+04       1.305652216223e+07       5.092697510305e+06 
       6.561032730593e-03       1.686912044836e+07       1.675861642813e+07      -1.044251949458e+04      -1.062225587774e+04       1.294711584052e+07       5.074787519415e+06 
       6.685203192556e-03       1.680961708005e+07       1.669926401975e+07      -1.001953655041e+04      -1.019204364971e+04       1.283856486436e+07       5.056974806382e+06 
       6.809484640424e-03       1.675015941364e+07       1.664000846801e+07      -9.619847876565e+03      -9.785524844819e+03       1.273084388407e+07       5.039217932028e+06 
       6.933871896495e-03       1.669075211621e+07       1.658085488744e+07      -9.242456292925e+03      -9.401674305149e+03       1.262393226716e+07       5.021472687217e+06 
       7.058360139343e-03       1.663141303658e+07       1.652181193150e+07      -8.886285698848e+03      -9.039390239246e+03       1.251781592304e+07       5.003701593018e+06 
       7.182944875837e-03       1.657215873417e+07       1.646287856788e+07      -8.550111270540e+03      -8.697424126547e+03       1.241247640682e+07       4.985877961160e+06 
       7.307621915731e-03       1.651301717148e+07       1.640406163838e+07      -8.232554939776e+03      -8.374376184973e+03       1.230790436862e+07       4.967995577736e+06 
       7.432387348547e-03       1.645401682946e+07       1.634536852838e+07      -7.932129982638e+03      -8.068739762411e+03       1.220409287237e+07       4.950067496644e+06 
       7.557237522539e-03       1.639517505802e+07       1.628679972209e+07      -7.647308336143e+03      -7.778968449196e+03       1.210103153510e+07       4.932121014658e+06 
       7.682169025517e-03       1.633650225669e+07       1.622835637188e+07      -7.376623670826e+03      -7.503579088015e+03       1.199871130284e+07       4.914193530122e+06 
       7.807178667353e-03       1.627800558434e+07       1.617004476713e+07      -7.118755922917e+03      -7.241236200600e+03       1.189712743119e+07       4.896326421135e+06 
       7.932263463999e-03       1.621967945300e+07       1.611186671214e+07      -6.872593199208e+03      -6.990813683799e+03       1.179627184600e+07       4.878554307102e+06 
       8.057420622880e-03       1.616150811479e+07       1.605382002957e+07      -6.637263257247e+03      -6.751426160954e+03       1.169613296673e+07       4.860898556051e+06 
       8.182647529522e-03       1.610348453113e+07       1.599591472236e+07      -6.412138635666e+03      -6.522434111204e+03       1.159670741644e+07       4.843368328404e+06 
       8.307941735299e-03       1.604559401924e+07       1.593815217872e+07      -6.196787866314e+03      -6.303394818221e+03       1.149798477315e+07       4.825953839912e+06 
       8.433300946197e-03       1.598782608135e+07       1.588053490793e+07      -5.990918782040e+03      -6.094005654360e+03       1.139995444021e+07       4.808631820670e+06 
       8.558723012502e-03       1.593017442805e+07       1.582306324553e+07      -5.794300447139e+03      -5.894025909810e+03       1.130260344662e+07       4.791370078379e+06 
       8.684205919325e-03       1.587264175943e+07       1.576573986214e+07      -5.606699172610e+03      -5.703212783464e+03       1.120592010134e+07       4.774135520981e+06 
       8.809747777881e-03       1.581523586444e+07       1.570856624113e+07      -5.427820608342e+03      -5.521263402509e+03       1.110989156034e+07       4.756899908961e+06 
       8.935346817476e-03       1.575797139841e+07       1.565154584850e+07      -5.257278661755e+03      -5.347783723272e+03       1.101450636588e+07       4.739646326387e+06 
       9.061001378108e-03       1.570085760673e+07       1.559467505353e+07      -5.094591601651e+03      -5.182284559221e+03       1.091974891675e+07       4.722369490674e+06 
