# Matter power spectrum P(k) at redshift z=0
# for k=1.03205e-05 to 167.726 h/Mpc,
# number of wavenumbers equal to 627
#    1:k (h/Mpc)              2:P (Mpc/h)^3        
       1.032046293901e-05       4.849693776962e+01 
       2.300683923731e-05       1.055521402623e+02 
       3.573656822930e-05       1.618128637126e+02 
       4.854287129140e-05       2.178016166378e+02 
       6.145950357569e-05       2.738275771025e+02 
       7.452104600425e-05       3.301299536666e+02 
       8.776320634053e-05       3.869180220670e+02 
       1.012231332307e-04       4.443873771063e+02 
       1.149397471387e-04       5.027297975922e+02 
       1.289540921310e-04       5.621375799484e+02 
       1.433097124774e-04       6.228078779468e+02 
       1.580530579922e-04       6.849460432699e+02 
       1.732339218979e-04       7.487673957672e+02 
       1.889059146972e-04       8.145009348856e+02 
       2.051269769997e-04       8.823907919117e+02 
       2.219599333672e-04       9.526997457275e+02 
       2.394730878719e-04       1.025711367010e+03 
       2.577408600224e-04       1.101731835377e+03 
       2.768444567846e-04       1.181093399574e+03 
       2.968725723212e-04       1.264157363441e+03 
       3.179221014923e-04       1.351315595389e+03 
       3.400988457333e-04       1.442993375081e+03 
       3.635181803335e-04       1.539652437877e+03 
       3.883056401082e-04       1.641788988438e+03 
       4.145973659236e-04       1.749938146610e+03 
       4.425403377955e-04       1.864670349265e+03 
       4.722923022585e-04       1.986589093387e+03 
       5.040212842068e-04       2.116327244666e+03 
       5.379045595170e-04       2.254536632089e+03 
       5.741269589920e-04       2.401879409415e+03 
       6.128783824900e-04       2.559012189446e+03 
       6.543504313686e-04       2.726569015262e+03 
       6.987321239636e-04       2.905138911496e+03 
       7.462047463595e-04       3.095243198843e+03 
       7.969360069433e-04       3.297315328954e+03 
       8.510737970911e-04       3.511674499215e+03 
       9.087399903518e-04       3.738515069287e+03 
       9.700248087933e-04       3.977888807915e+03 
       1.034982315906e-03       4.229700780556e+03 
       1.103627537169e-03       4.493703882198e+03 
       1.175935557768e-03       4.769498618073e+03 
       1.251842723071e-03       5.056531736551e+03 
       1.331249814473e-03       5.354081925209e+03 
       1.414026844457e-03       5.661295703782e+03 
       1.500018956250e-03       5.977233761353e+03 
       1.589052850273e-03       6.300850073453e+03 
       1.680943190376e-03       6.631059869220e+03 
       1.775498544428e-03       6.966782847913e+03 
       1.872526552716e-03       7.306978789333e+03 
       1.971838160796e-03       7.650662388087e+03 
       2.073250877260e-03       7.996906834798e+03 
       2.176591108685e-03       8.344843123422e+03 
       2.281695681574e-03       8.693658579364e+03 
       2.388412688721e-03       9.042607237065e+03 
       2.496601802506e-03       9.391023207358e+03 
       2.606134188135e-03       9.738324198332e+03 
       2.716892132295e-03       1.008401591980e+04 
       2.828768482244e-03       1.042768290382e+04 
       2.941665970060e-03       1.076897098023e+04 
       3.055496478525e-03       1.110758106458e+04 
       3.170180289688e-03       1.144325667260e+04 
       3.285645344725e-03       1.177577702980e+04 
       3.401826534032e-03       1.210495250611e+04 
       3.518665029222e-03       1.243062392350e+04 
       3.636107663382e-03       1.275265234407e+04 
       3.754106362190e-03       1.307091282169e+04 
       3.872617625906e-03       1.338529733870e+04 
       3.991602060571e-03       1.369570357392e+04 
       4.111023955719e-03       1.400202999206e+04 
       4.230850905288e-03       1.430418375461e+04 
       4.351053468208e-03       1.460207540515e+04 
       4.471604865048e-03       1.489563035893e+04 
       4.592480707249e-03       1.518477956221e+04 
       4.713658755615e-03       1.546946961401e+04 
       4.835118704981e-03       1.574965684696e+04 
       4.956841992246e-03       1.602531457231e+04 
       5.078811625183e-03       1.629641255116e+04 
       5.201012029733e-03       1.656297254229e+04 
       5.323428913691e-03       1.682498077594e+04 
       5.446049144954e-03       1.708246494437e+04 
       5.568860642667e-03       1.733546799534e+04 
       5.691852279824e-03       1.758401671752e+04 
       5.815013796020e-03       1.782816425430e+04 
       5.938335719228e-03       1.806796181123e+04 
       6.061809295569e-03       1.830345064098e+04 
       6.185426426206e-03       1.853468002115e+04 
       6.309179610566e-03       1.876169704504e+04 
       6.433061895187e-03       1.898453661712e+04 
       6.557066827594e-03       1.920323893195e+04 
       6.681188414645e-03       1.941784036647e+04 
       6.805421084879e-03       1.962836191958e+04 
       6.929759654436e-03       1.983483089853e+04 
       7.054199296170e-03       2.003727293257e+04 
       7.178735511636e-03       2.023570209756e+04 
       7.303364105637e-03       2.043014511141e+04 
       7.428081163085e-03       2.062063680819e+04 
       7.552883027932e-03       2.080719935239e+04 
       7.677766283971e-03       2.098985683297e+04 
       7.802727737316e-03       2.116865418411e+04 
       7.927764400406e-03       2.134362715919e+04 
       8.052873477372e-03       2.151480664677e+04 
       8.178052350647e-03       2.168225540580e+04 
       8.303298568705e-03       2.184601953227e+04 
       8.428609834802e-03       2.200614984272e+04 
       8.553983996657e-03       2.216268415937e+04 
       8.679419036961e-03       2.231567899848e+04 
       8.804913064646e-03       2.246517909957e+04 
       8.930464306861e-03       2.261123014407e+04 
       9.056071101568e-03       2.275387839218e+04 
       9.181731890719e-03       2.289315937927e+04 
       9.307445213960e-03       2.302910662089e+04 
       9.433209702824e-03       2.316176298877e+04 
       9.559024075348e-03       2.329115637341e+04 
       9.684887131112e-03       2.341731466534e+04 
       9.810797746641e-03       2.354027357602e+04 
       9.936754871142e-03       2.366006024556e+04 
       1.006275752256e-02       2.377670148686e+04 
       1.018880478393e-02       2.389023153470e+04 
       1.031489579996e-02       2.400067105104e+04 
       1.044102977392e-02       2.410807111696e+04 
       1.056720596466e-02       2.421244703965e+04 
       1.069342368396e-02       2.431385261302e+04 
       1.081968229395e-02       2.441230368224e+04 
       1.094598120481e-02       2.450785409303e+04 
       1.107231987254e-02       2.460053792213e+04 
       1.119869779696e-02       2.469038610404e+04 
       1.132511451983e-02       2.477744770744e+04 
       1.145156962305e-02       2.486174717116e+04 
       1.157806272708e-02       2.494332557982e+04 
       1.170459348938e-02       2.502221214024e+04 
       1.183116160300e-02       2.509844545780e+04 
       1.195776679527e-02       2.517205527970e+04 
       1.208440882659e-02       2.524307094894e+04 
       1.221108748925e-02       2.531152091849e+04 
       1.233780260641e-02       2.537743652967e+04 
       1.246455403111e-02       2.544083842111e+04 
       1.259134164533e-02       2.550177023085e+04 
       1.271816535917e-02       2.556024313215e+04 
       1.284502511008e-02       2.561629305715e+04 
       1.297192086208e-02       2.566995247212e+04 
       1.309885260513e-02       2.572124896655e+04 
       1.322582035451e-02       2.577019223546e+04 
       1.335282415023e-02       2.581683765111e+04 
       1.347986405652e-02       2.586120146282e+04 
       1.360694016134e-02       2.590331520118e+04 
       1.373405257595e-02       2.594321805127e+04 
       1.386120143448e-02       2.598092581009e+04 
       1.398838689360e-02       2.601647001216e+04 
       1.411560913219e-02       2.604989223825e+04 
       1.424286835102e-02       2.608118478258e+04 
       1.437016477249e-02       2.611042621666e+04 
       1.449749864041e-02       2.613760204268e+04 
       1.452091028622e-02       2.614237448402e+04 
       1.462487021981e-02       2.616275527313e+04 
       1.475227979672e-02       2.618590529966e+04 
       1.487972767807e-02       2.620708339104e+04 
       1.500721419151e-02       2.622631228685e+04 
       1.513473968537e-02       2.624359619727e+04 
       1.526230452854e-02       2.625898837460e+04 
       1.538990911046e-02       2.627250431606e+04 
       1.551755384102e-02       2.628416741441e+04 
       1.564523915065e-02       2.629399715720e+04 
       1.577296549024e-02       2.630202237588e+04 
       1.590073333121e-02       2.630826333383e+04 
       1.602854316559e-02       2.631275310898e+04 
       1.615639550603e-02       2.631552977730e+04 
       1.628429088595e-02       2.631659988161e+04 
       1.641222985960e-02       2.631597166596e+04 
       1.654021300222e-02       2.631369085814e+04 
       1.666824091019e-02       2.630975065909e+04 
       1.679631420114e-02       2.630421256916e+04 
       1.692443351418e-02       2.629708308295e+04 
       1.705259951009e-02       2.628834394879e+04 
       1.718081287151e-02       2.627809074991e+04 
       1.730907430318e-02       2.626629020520e+04 
       1.743738453221e-02       2.625299784126e+04 
       1.756574430830e-02       2.623821665871e+04 
       1.769415440405e-02       2.622198625119e+04 
       1.782261561525e-02       2.620430552551e+04 
       1.795112876119e-02       2.618521067169e+04 
       1.807969468499e-02       2.616471844424e+04 
       1.820831425394e-02       2.614284178872e+04 
       1.833698835989e-02       2.611960133684e+04 
       1.846571791958e-02       2.609504545488e+04 
       1.859450387508e-02       2.606911867952e+04 
       1.872334719419e-02       2.604193942144e+04 
       1.885224887084e-02       2.601348441829e+04 
       1.898120992562e-02       2.598373391075e+04 
       1.911023140614e-02       2.595279464944e+04 
       1.923931438760e-02       2.592060197137e+04 
       1.936845997324e-02       2.588725463450e+04 
       1.949766929488e-02       2.585267508980e+04 
       1.962694351347e-02       2.581698301658e+04 
       1.975628381964e-02       2.578013174022e+04 
       1.988569143426e-02       2.574215927481e+04 
       2.001516760905e-02       2.570308376023e+04 
       2.014471362724e-02       2.566293566197e+04 
       2.027433080412e-02       2.562172878231e+04 
       2.040402048780e-02       2.557944239855e+04 
       2.053378405983e-02       2.553614852023e+04 
       2.066362293590e-02       2.549184728666e+04 
       2.079353856663e-02       2.544656089258e+04 
       2.092353243825e-02       2.540033315968e+04 
       2.105360607341e-02       2.535306797287e+04 
       2.118376103199e-02       2.530491208027e+04 
       2.131399891191e-02       2.525587534793e+04 
       2.144432134998e-02       2.520584991053e+04 
       2.157473002279e-02       2.515498318936e+04 
       2.170522664760e-02       2.510328905095e+04 
       2.183581298330e-02       2.505072089655e+04 
       2.196649083135e-02       2.499721193863e+04 
       2.209726203679e-02       2.494297322694e+04 
       2.222812848926e-02       2.488795533324e+04 
       2.235909212405e-02       2.483212865048e+04 
       2.249015492322e-02       2.477552063966e+04 
       2.262131891669e-02       2.471818144910e+04 
       2.275258618342e-02       2.466008392511e+04 
       2.288395885259e-02       2.460128662677e+04 
       2.301543910487e-02       2.454177547214e+04 
       2.314702917366e-02       2.448153932133e+04 
       2.327873134643e-02       2.442068811749e+04 
       2.341054796603e-02       2.435914561089e+04 
       2.354248143216e-02       2.429695242530e+04 
       2.367453420274e-02       2.423410350606e+04 
       2.380670879547e-02       2.417067081375e+04 
       2.393900778930e-02       2.410662683067e+04 
       2.407143382608e-02       2.404202598173e+04 
       2.420398961215e-02       2.397676423426e+04 
       2.433667792006e-02       2.391103942295e+04 
       2.446950159031e-02       2.384472172666e+04 
       2.460246353316e-02       2.377783715035e+04 
       2.473556673047e-02       2.371049724729e+04 
       2.486881423768e-02       2.364256559376e+04 
       2.500220918574e-02       2.357422191996e+04 
       2.513575478321e-02       2.350538522253e+04 
       2.526945431838e-02       2.343604962060e+04 
       2.540331116143e-02       2.336625225753e+04 
       2.553732876678e-02       2.329602745608e+04 
       2.567151067536e-02       2.322537616796e+04 
       2.580586051711e-02       2.315434084928e+04 
       2.594038201345e-02       2.308288175857e+04 
       2.607507897991e-02       2.301098614634e+04 
       2.620995532881e-02       2.293869868523e+04 
       2.634501507210e-02       2.286615625687e+04 
       2.648026232417e-02       2.279313828364e+04 
       2.661570130492e-02       2.271977740211e+04 
       2.675133634281e-02       2.264611872992e+04 
       2.688717187812e-02       2.257209130900e+04 
       2.702321246625e-02       2.249777296143e+04 
       2.715946278119e-02       2.242315533140e+04 
       2.729592761910e-02       2.234829405737e+04 
       2.743261190203e-02       2.227305919180e+04 
       2.756952068177e-02       2.219760840472e+04 
       2.770665914387e-02       2.212182437245e+04 
       2.784403261178e-02       2.204586688926e+04 
       2.798164655117e-02       2.196966269865e+04 
       2.811950657441e-02       2.189321655607e+04 
       2.825761844524e-02       2.181648512435e+04 
       2.839598808359e-02       2.173960019490e+04 
       2.853462157063e-02       2.166250544290e+04 
       2.867352515401e-02       2.158518065436e+04 
       2.881270525327e-02       2.150765743942e+04 
       2.895216846553e-02       2.143001988326e+04 
       2.909192157141e-02       2.135215221130e+04 
       2.923197154111e-02       2.127414142007e+04 
       2.937232554085e-02       2.119602778320e+04 
       2.951299093953e-02       2.111767420649e+04 
       2.965397531565e-02       2.103925434129e+04 
       2.979528646459e-02       2.096065074945e+04 
       2.993693240611e-02       2.088197192398e+04 
       3.007892139229e-02       2.080315002675e+04 
       3.022126191569e-02       2.072420996206e+04 
       3.036396271800e-02       2.064520441173e+04 
       3.050703279898e-02       2.056608238542e+04 
       3.065048142582e-02       2.048685307944e+04 
       3.079431814297e-02       2.040755694936e+04 
       3.093855278234e-02       2.032822817812e+04 
       3.108319547409e-02       2.024876598454e+04 
       3.122825665778e-02       2.016934132092e+04 
       3.137374709416e-02       2.008974621476e+04 
       3.151967787743e-02       2.001008746573e+04 
       3.166606044822e-02       1.993044056094e+04 
       3.181290660699e-02       1.985077028117e+04 
       3.196022852831e-02       1.977107971869e+04 
       3.210803877570e-02       1.969130504839e+04 
       3.225635031724e-02       1.961153532974e+04 
       3.240517654198e-02       1.953176015884e+04 
       3.255453127721e-02       1.945189639016e+04 
       3.270442880654e-02       1.937207887607e+04 
       3.285488388903e-02       1.929225401796e+04 
       3.300591177918e-02       1.921243911951e+04 
       3.315752824812e-02       1.913261928018e+04 
       3.330974960584e-02       1.905280701873e+04 
       3.346259272467e-02       1.897301206631e+04 
       3.361607506404e-02       1.889317900183e+04 
       3.377021469655e-02       1.881338544251e+04 
       3.392503033560e-02       1.873364610628e+04 
       3.408054136449e-02       1.865390410912e+04 
       3.423676786725e-02       1.857420252107e+04 
       3.439373066119e-02       1.849450856170e+04 
       3.455145133141e-02       1.841487611160e+04 
       3.470995226731e-02       1.833518867739e+04 
       3.486925670130e-02       1.825570306718e+04 
       3.502938874986e-02       1.817611746960e+04 
       3.519037345711e-02       1.809659285399e+04 
       3.535223684106e-02       1.801708959483e+04 
       3.551500594279e-02       1.793771199399e+04 
       3.567870887877e-02       1.785830846705e+04 
       3.584337489648e-02       1.777900326761e+04 
       3.600903443373e-02       1.769965905506e+04 
       3.617571918181e-02       1.762039384650e+04 
       3.634346215296e-02       1.754122120242e+04 
       3.651229775230e-02       1.746204368285e+04 
       3.668226185481e-02       1.738292432849e+04 
       3.685339188752e-02       1.730380331238e+04 
       3.702572691763e-02       1.722480954225e+04 
       3.719930774681e-02       1.714578788095e+04 
       3.737417701244e-02       1.706681006055e+04 
       3.755037929615e-02       1.698792871769e+04 
       3.772796124057e-02       1.690900736671e+04 
       3.790697167483e-02       1.683018859632e+04 
       3.808746174969e-02       1.675134161682e+04 
       3.826948508320e-02       1.667260303887e+04 
       3.845309791784e-02       1.659383240184e+04 
       3.863835929032e-02       1.651510808023e+04 
       3.882533121509e-02       1.643639810207e+04 
       3.901407888314e-02       1.635769574672e+04 
       3.920467087747e-02       1.627899854590e+04 
       3.939717940688e-02       1.620038027606e+04 
       3.959168056017e-02       1.612168851459e+04 
       3.978825458266e-02       1.604303117981e+04 
       3.998698617760e-02       1.596431473939e+04 
       4.018796483501e-02       1.588568121542e+04 
       4.039128519109e-02       1.580693129922e+04 
       4.059704742158e-02       1.572819733745e+04 
       4.080535767297e-02       1.564946932656e+04 
       4.101632853589e-02       1.557060964495e+04 
       4.123007956581e-02       1.549175046460e+04 
       4.144673785661e-02       1.541282846024e+04 
       4.166643867354e-02       1.533381032664e+04 
       4.188932615315e-02       1.525475999124e+04 
       4.211555407853e-02       1.517558425258e+04 
       4.234528673975e-02       1.509631428979e+04 
       4.257869989088e-02       1.501691369127e+04 
       4.281598181656e-02       1.493738028901e+04 
       4.305733452334e-02       1.485769086691e+04 
       4.330297507337e-02       1.477787686845e+04 
       4.355313708104e-02       1.469787857547e+04 
       4.380807239650e-02       1.461762422248e+04 
       4.406805300438e-02       1.453722046671e+04 
       4.433337317068e-02       1.445653203861e+04 
       4.460435187711e-02       1.437559610715e+04 
       4.488133558933e-02       1.429436279505e+04 
       4.516470141400e-02       1.421283510583e+04 
       4.545486071082e-02       1.413098401523e+04 
       4.575226323807e-02       1.404870800094e+04 
       4.605740192685e-02       1.396605701561e+04 
       4.637081839818e-02       1.388297272608e+04 
       4.669310936223e-02       1.379935882662e+04 
       4.702493406836e-02       1.371522146910e+04 
       4.736702301305e-02       1.363051799888e+04 
       4.772018815940e-02       1.354516755112e+04 
       4.808533498146e-02       1.345915232009e+04 
       4.846347672147e-02       1.337230130011e+04 
       4.885575134241e-02       1.328464414199e+04 
       4.926344177915e-02       1.319607616817e+04 
       4.968800024398e-02       1.310643488210e+04 
       5.013107753792e-02       1.301570029031e+04 
       5.059455856780e-02       1.292366334327e+04 
       5.108060558519e-02       1.283019616191e+04 
       5.159171106315e-02       1.273516844234e+04 
       5.213076262580e-02       1.263829486763e+04 
       5.270112305700e-02       1.253932787508e+04 
       5.330672913607e-02       1.243799255846e+04 
       5.395221384313e-02       1.233393672478e+04 
       5.464305722971e-02       1.222664764309e+04 
       5.538577168151e-02       1.211553062310e+04 
       5.618812680135e-02       1.199982939364e+04 
       5.705941647049e-02       1.187856489785e+04 
       5.801076340283e-02       1.175046580335e+04 
       5.905544030029e-02       1.161377753621e+04 
