# total [l(l+1)/2pi] C_l's (units: [microK]^2)
# for l=2 to 3000, i.e. number of multipoles equal to 2999
#
# -> if you don't want to see such a header, set 'headers' to 'no' in input file
# -> for CMB lensing (d), these are C_l^dd for the deflection field.
#    Remember the conversion factors:
#    C_l^dd (deflection) = l(l+1) C_l^phi-phi
#    C_l^gg (shear/convergence) = 1/4 (l(l+1))^2 C_l^phi-phi
#
# 1:l     2:TT                     3:EE                     4:BB                     5:TE                     6:dd                     7:dT                     8:dE                 
    2       1.107966433284e+03       6.412086025799e-02       0.000000000000e+00       3.620916218058e+00       4.879023132908e-08       3.346877442428e-03      -1.737179018128e-05 
    3       1.033840125855e+03       1.150058068100e-01       0.000000000000e+00       4.682372612105e+00       6.054334030263e-08       3.378923463247e-03      -2.224708696496e-05 
    4       9.633307489253e+02       1.429465459891e-01       0.000000000000e+00       4.958570465561e+00       7.051725306729e-08       3.323129574284e-03      -2.370072148965e-05 
    5       9.076171715296e+02       1.418440316818e-01       0.000000000000e+00       4.751258239465e+00       7.918501583023e-08       3.233742653796e-03      -2.250687555220e-05 
    6       8.660623293228e+02       1.184427291559e-01       0.000000000000e+00       4.282038874487e+00       8.676534182515e-08       3.129141483072e-03      -1.931417799707e-05 
    7       8.362804660043e+02       8.538639809294e-02       0.000000000000e+00       3.702612184198e+00       9.344154852482e-08       3.017876911617e-03      -1.483973709398e-05 
    8       8.157792874903e+02       5.426964317948e-02       0.000000000000e+00       3.104130361064e+00       9.935250883243e-08       2.905239383313e-03      -9.800670777957e-06 
    9       8.026932798732e+02       3.183350444229e-02       0.000000000000e+00       2.543043422671e+00       1.046329388513e-07       2.794480945565e-03      -4.852856299241e-06 
   10       7.953329174402e+02       1.940528692765e-02       0.000000000000e+00       2.055574998243e+00       1.094208785622e-07       2.687431170474e-03      -5.300944091366e-07 
   11       7.922870298148e+02       1.458394162701e-02       0.000000000000e+00       1.663970738764e+00       1.109552773561e-07       2.591150597066e-03       2.765764215200e-06 
   12       7.930648660394e+02       1.366912473513e-02       0.000000000000e+00       1.377628198552e+00       1.146959489910e-07       2.489196049968e-03       4.893631550748e-06 
   13       7.964439828071e+02       1.360575812350e-02       0.000000000000e+00       1.194557084179e+00       1.180583195696e-07       2.401766463834e-03       5.834202180497e-06 
   14       8.015769954836e+02       1.286612986137e-02       0.000000000000e+00       1.104613127696e+00       1.210843544535e-07       2.312127098967e-03       5.661195060860e-06 
   15       8.086845494270e+02       1.133497702290e-02       0.000000000000e+00       1.090129963549e+00       1.238080600892e-07       2.230293626505e-03       4.621090324028e-06 
   16       8.169181573335e+02       9.648540140931e-03       0.000000000000e+00       1.128859411743e+00       1.262607635534e-07       2.156546887388e-03       2.997049408000e-06 
   17       8.262511166080e+02       8.488509296471e-03       0.000000000000e+00       1.199258736959e+00       1.284688065791e-07       2.090591873952e-03       1.096953053251e-06 
   18       8.365033219495e+02       8.165010489283e-03       0.000000000000e+00       1.281795812644e+00       1.304049591564e-07       2.027428422865e-03      -7.824948982129e-07 
   19       8.475591136246e+02       8.510348776068e-03       0.000000000000e+00       1.363840229626e+00       1.322380722303e-07       1.966819197327e-03      -2.419058158892e-06 
   20       8.589903376649e+02       9.136976662209e-03       0.000000000000e+00       1.433472419554e+00       1.338289085709e-07       1.906502114075e-03      -3.621861383864e-06 
   21       8.709661710364e+02       9.745870319455e-03       0.000000000000e+00       1.486865453183e+00       1.352651400931e-07       1.849336725827e-03      -4.301389627050e-06 
   22       8.835963427350e+02       1.008303846977e-02       0.000000000000e+00       1.523597693380e+00       1.365215927773e-07       1.797362855673e-03      -4.458980144261e-06 
   23       8.967401985744e+02       1.023205086735e-02       0.000000000000e+00       1.545690627385e+00       1.376685739718e-07       1.748834757817e-03      -4.151511928150e-06 
   24       9.100541425847e+02       1.041661298138e-02       0.000000000000e+00       1.556956397716e+00       1.386575996150e-07       1.698784587333e-03      -3.508829592014e-06 
   25       9.236533562049e+02       1.083758520191e-02       0.000000000000e+00       1.562203393822e+00       1.395434668607e-07       1.648425624833e-03      -2.660721237483e-06 
   26       9.376627743877e+02       1.167518949197e-02       0.000000000000e+00       1.567027772800e+00       1.403045689906e-07       1.600299910171e-03      -1.768763911179e-06 
   27       9.519834678152e+02       1.293116722118e-02       0.000000000000e+00       1.575485936829e+00       1.409680259683e-07       1.555792732867e-03      -9.595868929004e-07 
   28       9.663924363845e+02       1.454011725291e-02       0.000000000000e+00       1.590835928987e+00       1.414974566207e-07       1.514939754049e-03      -3.515949416345e-07 
   29       9.809402505046e+02       1.645543677588e-02       0.000000000000e+00       1.613470301570e+00       1.419664131600e-07       1.477577941659e-03       1.935813174388e-09 
   30       9.956889203818e+02       1.862001532899e-02       0.000000000000e+00       1.642418849156e+00       1.423953650392e-07       1.442112295442e-03       8.055125638797e-08 
   31       1.010631586320e+03       2.097121678608e-02       0.000000000000e+00       1.675874813652e+00       1.427036978646e-07       1.405944999272e-03      -1.117022764444e-07 
   32       1.025808644024e+03       2.350344644294e-02       0.000000000000e+00       1.710937942276e+00       1.429365247934e-07       1.369804756462e-03      -5.253350656290e-07 
   33       1.041216854886e+03       2.622844379208e-02       0.000000000000e+00       1.743632446143e+00       1.431224661446e-07       1.335332325685e-03      -1.066031620826e-06 
   34       1.056799518525e+03       2.915172104078e-02       0.000000000000e+00       1.769474176558e+00       1.432250190575e-07       1.303722202553e-03      -1.613990978314e-06 
   35       1.072551224770e+03       3.224655558288e-02       0.000000000000e+00       1.785508484740e+00       1.432762987862e-07       1.274835703044e-03      -2.102838419781e-06 
   36       1.088436872345e+03       3.547011636843e-02       0.000000000000e+00       1.788915188356e+00       1.432831321269e-07       1.247423114659e-03      -2.473639609558e-06 
   37       1.104397106562e+03       3.878501348174e-02       0.000000000000e+00       1.777108176976e+00       1.432061214776e-07       1.219796504470e-03      -2.668313265772e-06 
   38       1.120484949551e+03       4.221196417696e-02       0.000000000000e+00       1.750010182574e+00       1.430839729324e-07       1.192144238847e-03      -2.680731062626e-06 
   39       1.136766575334e+03       4.579487630224e-02       0.000000000000e+00       1.708546847147e+00       1.429527260722e-07       1.165122401243e-03      -2.530249575453e-06 
   40       1.153280408911e+03       4.958758980090e-02       0.000000000000e+00       1.654075710541e+00       1.427990129021e-07       1.139227436152e-03      -2.251750845148e-06 
   41       1.170036075469e+03       5.364302515494e-02       0.000000000000e+00       1.588183130469e+00       1.425754462714e-07       1.114757624582e-03      -1.892416884748e-06 
   42       1.187018981310e+03       5.797480552361e-02       0.000000000000e+00       1.511924065449e+00       1.423048215316e-07       1.091791626426e-03      -1.494129660208e-06 
   43       1.204181521511e+03       6.258424382476e-02       0.000000000000e+00       1.426384855258e+00       1.420127844158e-07       1.070121389077e-03      -1.106535805399e-06 
   44       1.221437702747e+03       6.747063747962e-02       0.000000000000e+00       1.332908145670e+00       1.416919465821e-07       1.049191464693e-03      -7.933928660259e-07 
   45       1.238698833323e+03       7.263153501472e-02       0.000000000000e+00       1.232690865392e+00       1.413142644288e-07       1.028318228669e-03      -6.173241629951e-07 
   46       1.256000921470e+03       7.806395564471e-02       0.000000000000e+00       1.125402791334e+00       1.409042115643e-07       1.007607461115e-03      -5.818871318246e-07 
   47       1.273409874833e+03       8.376329988940e-02       0.000000000000e+00       1.010178118276e+00       1.404903351704e-07       9.873453155787e-04      -6.665876537378e-07 
   48       1.290984929804e+03       8.972286528300e-02       0.000000000000e+00       8.859851543596e-01       1.400806804636e-07       9.677409583577e-04      -8.403419203609e-07 
   49       1.308777665780e+03       9.593373186177e-02       0.000000000000e+00       7.516159823424e-01       1.396565589142e-07       9.489096539417e-04      -1.060165973896e-06 
   50       1.326823996360e+03       1.023873713720e-01       0.000000000000e+00       6.058411091814e-01       1.391847117284e-07       9.308877067207e-04      -1.278894482283e-06 
   51       1.345119867071e+03       1.090845755093e-01       0.000000000000e+00       4.479468885160e-01       1.386793746116e-07       9.137279400995e-04      -1.475421495291e-06 
   52       1.363637257139e+03       1.160287532074e-01       0.000000000000e+00       2.773261042978e-01       1.381609865364e-07       8.974115675498e-04      -1.634251107711e-06 
   53       1.382329340981e+03       1.232234320694e-01       0.000000000000e+00       9.332321874417e-02       1.376366407061e-07       8.818033238735e-04      -1.737238141618e-06 
   54       1.401129171954e+03       1.306722720303e-01       0.000000000000e+00      -1.047682022444e-01       1.370964161326e-07       8.666348924439e-04      -1.763371275466e-06 
   55       1.419972534587e+03       1.383783460532e-01       0.000000000000e+00      -3.174783952617e-01       1.365218979441e-07       8.516029686806e-04      -1.695496579863e-06 
   56       1.438876164562e+03       1.463417416630e-01       0.000000000000e+00      -5.444081561333e-01       1.359268628964e-07       8.367481476567e-04      -1.543988425459e-06 
   57       1.457876654754e+03       1.545613875133e-01       0.000000000000e+00      -7.847994709665e-01       1.353291968490e-07       8.221850438614e-04      -1.331392599589e-06 
   58       1.477007622764e+03       1.630357195804e-01       0.000000000000e+00      -1.037742555270e+00       1.347379945933e-07       8.079933487238e-04      -1.086797865278e-06 
   59       1.496299336307e+03       1.717626662688e-01       0.000000000000e+00      -1.302169480416e+00       1.341512998169e-07       7.942119796287e-04      -8.464527629652e-07 
   60       1.515778338598e+03       1.807396335170e-01       0.000000000000e+00      -1.576847800107e+00       1.335536385751e-07       7.808329675052e-04      -6.544042832406e-07 
   61       1.535466012479e+03       1.899638376340e-01       0.000000000000e+00      -1.860671652956e+00       1.329242627746e-07       7.678251097930e-04      -5.520619404808e-07 
   62       1.555374743680e+03       1.994334248082e-01       0.000000000000e+00      -2.153625843843e+00       1.322728445883e-07       7.552293257217e-04      -5.411893606665e-07 
   63       1.575510227682e+03       2.091465775976e-01       0.000000000000e+00      -2.456027835839e+00       1.316147354629e-07       7.430838290933e-04      -6.097124424341e-07 
   64       1.595872054773e+03       2.191011855876e-01       0.000000000000e+00      -2.768252373936e+00       1.309602485306e-07       7.313927299908e-04      -7.414035243720e-07 
   65       1.616453301764e+03       2.292948415300e-01       0.000000000000e+00      -3.090734550208e+00       1.303134097860e-07       7.201216594205e-04      -9.155044288125e-07 
   66       1.637240123697e+03       2.397248374818e-01       0.000000000000e+00      -3.423972868961e+00       1.296706042102e-07       7.091932254806e-04      -1.106337025984e-06 
   67       1.658211345559e+03       2.503881609438e-01       0.000000000000e+00      -3.768532311894e+00       1.290191134949e-07       6.984823010567e-04      -1.282901318527e-06 
   68       1.679346646902e+03       2.612811897690e-01       0.000000000000e+00      -4.124907322179e+00       1.283434319132e-07       6.878586839074e-04      -1.415918084552e-06 
   69       1.700653954142e+03       2.723987137314e-01       0.000000000000e+00      -4.493071666158e+00       1.276510143762e-07       6.773415719125e-04      -1.502424271609e-06 
   70       1.722146890693e+03       2.837347068534e-01       0.000000000000e+00      -4.872842449081e+00       1.269539531983e-07       6.669829665330e-04      -1.547863281218e-06 
   71       1.743836490021e+03       2.952825997380e-01       0.000000000000e+00      -5.264011617764e+00       1.262613233669e-07       6.568225439615e-04      -1.559399288170e-06 
   72       1.765731007118e+03       3.070352680028e-01       0.000000000000e+00      -5.666345443113e+00       1.255784839396e-07       6.468859611894e-04      -1.546058504543e-06 
   73       1.787835729981e+03       3.189850207151e-01       0.000000000000e+00      -6.079584002642e+00       1.249063260500e-07       6.371831001037e-04      -1.518874669665e-06 
   74       1.810152791097e+03       3.311235888263e-01       0.000000000000e+00      -6.503440662992e+00       1.242404659837e-07       6.277062496128e-04      -1.491038766029e-06 
   75       1.832680978914e+03       3.434421136073e-01       0.000000000000e+00      -6.937601562451e+00       1.235703817818e-07       6.184282258024e-04      -1.478052961168e-06 
   76       1.855417945259e+03       3.559317101951e-01       0.000000000000e+00      -7.381749666005e+00       1.228840782080e-07       6.093179686073e-04      -1.494158942573e-06 
   77       1.878367709016e+03       3.685853024429e-01       0.000000000000e+00      -7.835643138601e+00       1.221862480203e-07       6.003967282348e-04      -1.540125255500e-06 
   78       1.901534184632e+03       3.813961032069e-01       0.000000000000e+00      -8.299050389865e+00       1.214849586827e-07       5.916936316306e-04      -1.612424091845e-06 
   79       1.924918770436e+03       3.943570691406e-01       0.000000000000e+00      -8.771726756078e+00       1.207862467981e-07       5.832284633952e-04      -1.706611548703e-06 
   80       1.948520209255e+03       4.074609009231e-01       0.000000000000e+00      -9.253414486566e+00       1.200937101520e-07       5.750106114478e-04      -1.817261247734e-06 
   81       1.972334449018e+03       4.207000434866e-01       0.000000000000e+00      -9.743842730106e+00       1.194080719771e-07       5.670379789284e-04      -1.937896181670e-06 
   82       1.996354503370e+03       4.340666862446e-01       0.000000000000e+00      -1.024272752132e+01       1.187267167232e-07       5.592958623365e-04      -2.060918787967e-06 
   83       2.020570312280e+03       4.475527633197e-01       0.000000000000e+00      -1.074977176709e+01       1.180431966127e-07       5.517557959079e-04      -2.177539249585e-06 
   84       2.044972541804e+03       4.611493654874e-01       0.000000000000e+00      -1.126467079883e+01       1.173503361516e-07       5.443871979203e-04      -2.279584049302e-06 
   85       2.069565012483e+03       4.748448634989e-01       0.000000000000e+00      -1.178713011679e+01       1.166519602671e-07       5.371983437060e-04      -2.365607713910e-06 
   86       2.094354085325e+03       4.886264726162e-01       0.000000000000e+00      -1.231685057613e+01       1.159540411906e-07       5.302033522415e-04      -2.436159517214e-06 
   87       2.119344833736e+03       5.024808037180e-01       0.000000000000e+00      -1.285352316136e+01       1.152611679507e-07       5.234096123273e-04      -2.492050304257e-06 
   88       2.144540970327e+03       5.163938536400e-01       0.000000000000e+00      -1.339682906621e+01       1.145762973026e-07       5.168171359752e-04      -2.534371313559e-06 
   89       2.169944773735e+03       5.303509955159e-01       0.000000000000e+00      -1.394643977368e+01       1.139004893227e-07       5.104178933520e-04      -2.564513472494e-06 
   90       2.195557015433e+03       5.443369691182e-01       0.000000000000e+00      -1.450201713586e+01       1.132326273097e-07       5.041951292777e-04      -2.584187165823e-06 
   91       2.221376886547e+03       5.583358711986e-01       0.000000000000e+00      -1.506321345401e+01       1.125691216324e-07       4.981226612799e-04      -2.595442477363e-06 
   92       2.247401924666e+03       5.723311458294e-01       0.000000000000e+00      -1.562967155837e+01       1.119035971641e-07       4.921641592027e-04      -2.600689904801e-06 
   93       2.273629370971e+03       5.863068478050e-01       0.000000000000e+00      -1.620102692746e+01       1.112295259205e-07       4.862846802352e-04      -2.602191465432e-06 
   94       2.300060634050e+03       6.002516711877e-01       0.000000000000e+00      -1.677691423652e+01       1.105497966490e-07       4.804899176387e-04      -2.600354582353e-06 
   95       2.326697365247e+03       6.141555116159e-01       0.000000000000e+00      -1.735696194634e+01       1.098693798166e-07       4.747944060481e-04      -2.595093862642e-06 
   96       2.353540035343e+03       6.280082549406e-01       0.000000000000e+00      -1.794079045820e+01       1.091924837568e-07       4.692097406240e-04      -2.586328196180e-06 
   97       2.380587880997e+03       6.417997850406e-01       0.000000000000e+00      -1.852801222188e+01       1.085224198744e-07       4.637442915133e-04      -2.573981072950e-06 
   98       2.407838851198e+03       6.555199916388e-01       0.000000000000e+00      -1.911823184351e+01       1.078614601913e-07       4.584029106775e-04      -2.557980906532e-06 
   99       2.435289553710e+03       6.691587781182e-01       0.000000000000e+00      -1.971104619359e+01       1.072106870682e-07       4.531866310874e-04      -2.538261363809e-06 
  100       2.462935201522e+03       6.827060693372e-01       0.000000000000e+00      -2.030604451488e+01       1.065698349383e-07       4.480923582853e-04      -2.514761700884e-06 
  101       2.490769559294e+03       6.961518194462e-01       0.000000000000e+00      -2.090280853033e+01       1.059371238890e-07       4.431125543146e-04      -2.487427105192e-06 
  102       2.518784889805e+03       7.094860197026e-01       0.000000000000e+00      -2.150091255104e+01       1.053090849265e-07       4.382349140161e-04      -2.456209043826e-06 
  103       2.546971900400e+03       7.226987062877e-01       0.000000000000e+00      -2.209992358420e+01       1.046803767603e-07       4.334420336919e-04      -2.421065618073e-06 
  104       2.575321861251e+03       7.357795849142e-01       0.000000000000e+00      -2.269939790170e+01       1.040457683263e-07       4.287172551680e-04      -2.382037021431e-06 
  105       2.603833401357e+03       7.487168300657e-01       0.000000000000e+00      -2.329886998564e+01       1.034071367454e-07       4.240643019817e-04      -2.339488611630e-06 
  106       2.632506535021e+03       7.614981373683e-01       0.000000000000e+00      -2.389786228381e+01       1.027679823630e-07       4.194909776149e-04      -2.293917589754e-06 
  107       2.661340542689e+03       7.741110958743e-01       0.000000000000e+00      -2.449588868386e+01       1.021313462411e-07       4.150031765969e-04      -2.245885035357e-06 
