# total [l(l+1)/2pi] C_l's (units: [microK]^2)
# for l=2 to 3000, i.e. number of multipoles equal to 2999
#
# -> if you don't want to see such a header, set 'headers' to 'no' in input file
# -> for CMB lensing (d), these are C_l^dd for the deflection field.
#    Remember the conversion factors:
#    C_l^dd (deflection) = l(l+1) C_l^phi-phi
#    C_l^gg (shear/convergence) = 1/4 (l(l+1))^2 C_l^phi-phi
#
# 1:l     2:TT                     3:EE                     4:BB                     5:TE                     6:dd                     7:dT                     8:dE                 
    2       1.117564313624e+03       6.525393621570e-02       0.000000000000e+00       3.633715171424e+00       4.803525549140e-08       3.388380077458e-03      -1.751906643486e-05 
    3       1.040954146719e+03       1.163243129135e-01       0.000000000000e+00       4.694240877687e+00       6.005363678909e-08       3.417424241877e-03      -2.237923022477e-05 
    4       9.687958096384e+02       1.436213406888e-01       0.000000000000e+00       4.962941534938e+00       7.000985346966e-08       3.357325591013e-03      -2.375794800334e-05 
    5       9.119816253819e+02       1.414459314650e-01       0.000000000000e+00       4.745863899429e+00       7.864003651292e-08       3.264477767709e-03      -2.245937839432e-05 
    6       8.698065855202e+02       1.171059745665e-01       0.000000000000e+00       4.266181930566e+00       8.619873204008e-08       3.156252565977e-03      -1.915411853204e-05 
    7       8.393277421915e+02       8.362396824756e-02       0.000000000000e+00       3.678229809695e+00       9.285475967272e-08       3.041666674151e-03      -1.458131587480e-05 
    8       8.186282307630e+02       5.264871366488e-02       0.000000000000e+00       3.074264914696e+00       9.874517940731e-08       2.926914426909e-03      -9.474637468115e-06 
    9       8.055053842369e+02       3.071388637645e-02       0.000000000000e+00       2.510462208982e+00       1.040115378359e-07       2.814975734003e-03      -4.500726739034e-06 
   10       7.979160540126e+02       1.884710941491e-02       0.000000000000e+00       2.023180292088e+00       1.087927057430e-07       2.706940271478e-03      -1.975977042314e-07 
   11       7.950861282813e+02       1.441678119337e-02       0.000000000000e+00       1.633522990254e+00       1.100856484442e-07       2.606760006671e-03       3.029784661960e-06 
   12       7.956194251734e+02       1.364317237844e-02       0.000000000000e+00       1.350646006145e+00       1.137896413130e-07       2.506264011562e-03       5.074143552810e-06 
   13       7.987651942845e+02       1.353067304418e-02       0.000000000000e+00       1.173173514046e+00       1.171166681432e-07       2.411697662622e-03       5.891158586597e-06 
   14       8.043575447729e+02       1.267610766455e-02       0.000000000000e+00       1.089047699368e+00       1.201103914744e-07       2.328605505110e-03       5.622799712931e-06 
   15       8.113066539392e+02       1.107264515992e-02       0.000000000000e+00       1.079121873701e+00       1.228059569720e-07       2.245655340236e-03       4.483165362515e-06 
   16       8.196501675117e+02       9.399714684357e-03       0.000000000000e+00       1.121170946604e+00       1.252320020223e-07       2.169706969802e-03       2.786410866662e-06 
   17       8.290845172257e+02       8.315852601999e-03       0.000000000000e+00       1.192604623372e+00       1.274151835454e-07       2.100497534168e-03       8.505221241586e-07 
   18       8.392725068990e+02       8.072727358230e-03       0.000000000000e+00       1.274059608332e+00       1.293287616923e-07       2.035030110182e-03      -1.024994912537e-06 
   19       8.503386007161e+02       8.461153692738e-03       0.000000000000e+00       1.353623243143e+00       1.311410336886e-07       1.974431626302e-03      -2.620895576559e-06 
   20       8.621120482858e+02       9.063151694863e-03       0.000000000000e+00       1.420226840548e+00       1.327134474718e-07       1.916005032040e-03      -3.758773591896e-06 
   21       8.745044601232e+02       9.598880798729e-03       0.000000000000e+00       1.470120219634e+00       1.341329338188e-07       1.860376678831e-03      -4.359641971931e-06 
   22       8.872359168349e+02       9.855667452171e-03       0.000000000000e+00       1.502860182606e+00       1.353745704405e-07       1.806695490148e-03      -4.436989724177e-06 
   23       9.003410960021e+02       9.945710245340e-03       0.000000000000e+00       1.521271576556e+00       1.365081563915e-07       1.754633640133e-03      -4.055913833769e-06 
   24       9.138001919093e+02       1.011428519787e-02       0.000000000000e+00       1.530170071864e+00       1.374855759492e-07       1.702612432008e-03      -3.353814584331e-06 
   25       9.276045434715e+02       1.055259813756e-02       0.000000000000e+00       1.534301194501e+00       1.383610663330e-07       1.652933004229e-03      -2.468770232280e-06 
   26       9.416505765137e+02       1.141858832509e-02       0.000000000000e+00       1.538829731999e+00       1.391129836543e-07       1.607866267317e-03      -1.570027434310e-06 
   27       9.559673915207e+02       1.269680652166e-02       0.000000000000e+00       1.547664467109e+00       1.397681933888e-07       1.566118727843e-03      -7.855527229260e-07 
   28       9.705530417144e+02       1.430739181148e-02       0.000000000000e+00       1.563960831551e+00       1.402906509825e-07       1.524340936409e-03      -2.297812936331e-07 
   29       9.854468757431e+02       1.620495860872e-02       0.000000000000e+00       1.587940415775e+00       1.407533895454e-07       1.483304694286e-03       5.500480286100e-08 
   30       1.000608467572e+03       1.834017416314e-02       0.000000000000e+00       1.618393904576e+00       1.411768310308e-07       1.444691514708e-03       6.669956487180e-08 
   31       1.015921548428e+03       2.065837000093e-02       0.000000000000e+00       1.653203559574e+00       1.414811439369e-07       1.409412799698e-03      -1.700819132488e-07 
   32       1.031403441891e+03       2.315275018621e-02       0.000000000000e+00       1.689079025902e+00       1.417110666300e-07       1.377210160112e-03      -6.044462995011e-07 
   33       1.047055286614e+03       2.583053089930e-02       0.000000000000e+00       1.721570316995e+00       1.418948886962e-07       1.346443314591e-03      -1.149635423004e-06 
   34       1.062830842354e+03       2.869325922521e-02       0.000000000000e+00       1.745821380802e+00       1.419962669195e-07       1.314828941427e-03      -1.694882324883e-06 
   35       1.078749573795e+03       3.171612163577e-02       0.000000000000e+00       1.759268073158e+00       1.420470053093e-07       1.282875318832e-03      -2.172805278001e-06 
   36       1.094811112065e+03       3.486069135039e-02       0.000000000000e+00       1.759828327182e+00       1.420538574351e-07       1.251904895564e-03      -2.519632957082e-06 
   37       1.110988590698e+03       3.809436490678e-02       0.000000000000e+00       1.745648693359e+00       1.419777342208e-07       1.223007542332e-03      -2.673456421570e-06 
   38       1.127329339229e+03       4.144029556172e-02       0.000000000000e+00       1.716718907667e+00       1.418570163093e-07       1.196432498673e-03      -2.633230515057e-06 
   39       1.143879692122e+03       4.494437234551e-02       0.000000000000e+00       1.673812198372e+00       1.417274496269e-07       1.171794438966e-03      -2.428345990571e-06 
   40       1.160653291750e+03       4.866271268169e-02       0.000000000000e+00       1.618086903971e+00       1.415757918029e-07       1.148100228560e-03      -2.107238849283e-06 
   41       1.177638251736e+03       5.264985691817e-02       0.000000000000e+00       1.550959254411e+00       1.413550689445e-07       1.124121127757e-03      -1.730655222939e-06 
   42       1.194830373646e+03       5.691711975357e-02       0.000000000000e+00       1.473608137596e+00       1.410878888499e-07       1.100004623634e-03      -1.340279113125e-06 
   43       1.212204496442e+03       6.146180816178e-02       0.000000000000e+00       1.387353766700e+00       1.407996819695e-07       1.076256151715e-03      -9.797074044371e-07 
   44       1.229701645066e+03       6.627834204015e-02       0.000000000000e+00       1.293813178216e+00       1.404831220175e-07       1.053302643245e-03      -7.038740265580e-07 
   45       1.247255555020e+03       7.135973304030e-02       0.000000000000e+00       1.194399773003e+00       1.401103991843e-07       1.031463173466e-03      -5.655299532306e-07 
   46       1.264888689498e+03       7.670299477527e-02       0.000000000000e+00       1.088606268955e+00       1.397057706342e-07       1.010903334032e-03      -5.643146508601e-07 
   47       1.282639883885e+03       8.230502774381e-02       0.000000000000e+00       9.752353106000e-01       1.392975277957e-07       9.916202655635e-04      -6.772545563534e-07 
   48       1.300536114321e+03       8.816100046903e-02       0.000000000000e+00       8.528576099449e-01       1.388936290018e-07       9.734187278486e-04      -8.703697884639e-07 
   49       1.318591230962e+03       9.426425610132e-02       0.000000000000e+00       7.197980230849e-01       1.384755200584e-07       9.558805539609e-04      -1.097329571480e-06 
   50       1.336809734499e+03       1.006084098432e-01       0.000000000000e+00       5.744248164722e-01       1.380101985374e-07       9.385116657650e-04      -1.308286493127e-06 
   51       1.355202253005e+03       1.071945290810e-01       0.000000000000e+00       4.161423332044e-01       1.375117680340e-07       9.213325514482e-04      -1.484090986049e-06 
   52       1.373772076474e+03       1.140257407763e-01       0.000000000000e+00       2.446437073398e-01       1.370004888073e-07       9.044694196159e-04      -1.613402804792e-06 
   53       1.392509475764e+03       1.211052204549e-01       0.000000000000e+00       5.963156037452e-02       1.364833914999e-07       8.879852041297e-04      -1.683542384526e-06 
   54       1.411390673187e+03       1.284362019076e-01       0.000000000000e+00      -1.391816544021e-01       1.359506406935e-07       8.718686837605e-04      -1.680409284671e-06 
   55       1.430389889803e+03       1.360213850516e-01       0.000000000000e+00      -3.519426364188e-01       1.353839805720e-07       8.560746169944e-04      -1.593644418390e-06 
   56       1.449521350224e+03       1.438609650340e-01       0.000000000000e+00      -5.782268666449e-01       1.347970644312e-07       8.406891225650e-04      -1.434591813344e-06 
   57       1.468805909624e+03       1.519541305064e-01       0.000000000000e+00      -8.173614621629e-01       1.342076176476e-07       8.258050880956e-04      -1.224795934132e-06 
   58       1.488258382674e+03       1.602996091181e-01       0.000000000000e+00      -1.068541163063e+00       1.336246501893e-07       8.114692752375e-04      -9.918478930716e-07 
   59       1.507887023621e+03       1.688956537684e-01       0.000000000000e+00      -1.330822897003e+00       1.330462161836e-07       7.976752833139e-04      -7.699505642689e-07 
   60       1.527693006367e+03       1.777400288584e-01       0.000000000000e+00      -1.603120343773e+00       1.324569687849e-07       7.843562071799e-04      -6.005036527835e-07 
   61       1.547674618506e+03       1.868302889834e-01       0.000000000000e+00      -1.884467345968e+00       1.318363325858e-07       7.714210626693e-04      -5.221175481893e-07 
   62       1.567842119728e+03       1.961647192117e-01       0.000000000000e+00      -2.174889528913e+00       1.311938899316e-07       7.588965347058e-04      -5.352638023428e-07 
   63       1.588205311113e+03       2.057415824258e-01       0.000000000000e+00      -2.474719570276e+00       1.305448536991e-07       7.468190093149e-04      -6.268807851465e-07 
   64       1.608768752442e+03       2.155588411265e-01       0.000000000000e+00      -2.784348651540e+00       1.298994424000e-07       7.351904285944e-04      -7.795886641012e-07 
   65       1.629531391851e+03       2.256141529630e-01       0.000000000000e+00      -3.104229552851e+00       1.292616422998e-07       7.239738879111e-04      -9.713004932667e-07 
   66       1.650486195477e+03       2.359048662649e-01       0.000000000000e+00      -3.434879747863e+00       1.286278654035e-07       7.130890637494e-04      -1.174820470888e-06 
   67       1.671619777102e+03       2.464280155724e-01       0.000000000000e+00      -3.776884498578e+00       1.279854999908e-07       7.024074722121e-04      -1.357429365687e-06 
   68       1.692918859264e+03       2.571800921581e-01       0.000000000000e+00      -4.130756006631e+00       1.273191716583e-07       6.917960215217e-04      -1.488416191681e-06 
   69       1.714392004688e+03       2.681563115860e-01       0.000000000000e+00      -4.496470808348e+00       1.266362675499e-07       6.812745517420e-04      -1.565344853302e-06 
   70       1.736051643129e+03       2.793511890299e-01       0.000000000000e+00      -4.873843772781e+00       1.259487725964e-07       6.708970452234e-04      -1.594954532572e-06 
   71       1.757907437390e+03       2.907587411121e-01       0.000000000000e+00      -5.262663175500e+00       1.252656814829e-07       6.607056938935e-04      -1.586040252530e-06 
   72       1.779966087687e+03       3.023724756794e-01       0.000000000000e+00      -5.662690112021e+00       1.245923062521e-07       6.507292466712e-04      -1.549620494789e-06 
   73       1.802231136015e+03       3.141853815793e-01       0.000000000000e+00      -6.073657911226e+00       1.239295309893e-07       6.409812961032e-04      -1.499109816034e-06 
   74       1.824702770511e+03       3.261899184364e-01       0.000000000000e+00      -6.495271548791e+00       1.232730120624e-07       6.314585042207e-04      -1.450496463483e-06 
   75       1.847377629820e+03       3.383780064288e-01       0.000000000000e+00      -6.927207060610e+00       1.226123223899e-07       6.221387676193e-04      -1.422524989296e-06 
   76       1.870251597030e+03       3.507413608741e-01       0.000000000000e+00      -7.369134843089e+00       1.219355743369e-07       6.129956238684e-04      -1.432331839532e-06 
   77       1.893329202115e+03       3.632725890258e-01       0.000000000000e+00      -7.820795756000e+00       1.212474175074e-07       6.040503831151e-04      -1.480534995820e-06 
   78       1.916615586613e+03       3.759642756380e-01       0.000000000000e+00      -8.281937896140e+00       1.205558450792e-07       5.953307297737e-04      -1.562427926404e-06 
   79       1.940113533999e+03       3.888086527967e-01       0.000000000000e+00      -8.752293846411e+00       1.198668367208e-07       5.868546170000e-04      -1.672099081150e-06 
   80       1.963823335357e+03       4.017975967672e-01       0.000000000000e+00      -9.231580579066e+00       1.191839541556e-07       5.786291832030e-04      -1.802344823549e-06 
   81       1.987742655050e+03       4.149226248403e-01       0.000000000000e+00      -9.719499358954e+00       1.185079091882e-07       5.706496339966e-04      -1.944580040511e-06 
   82       2.011866396386e+03       4.281748921798e-01       0.000000000000e+00      -1.021573564676e+01       1.178361034807e-07       5.628980895935e-04      -2.088746429932e-06 
   83       2.036186567286e+03       4.415451886693e-01       0.000000000000e+00      -1.071995900226e+01       1.171621393677e-07       5.553423976381e-04      -2.223218466044e-06 
   84       2.060695554483e+03       4.550237518624e-01       0.000000000000e+00      -1.123184180988e+01       1.164788980988e-07       5.479485852662e-04      -2.337229649692e-06 
   85       2.085396864029e+03       4.685996771126e-01       0.000000000000e+00      -1.175111923414e+01       1.157901685349e-07       5.407245541298e-04      -2.429066668842e-06 
   86       2.110295923322e+03       4.822614034201e-01       0.000000000000e+00      -1.227753907235e+01       1.151018692415e-07       5.336849595532e-04      -2.499727271636e-06 
   87       2.135396754979e+03       4.959968824816e-01       0.000000000000e+00      -1.281084403239e+01       1.144185480316e-07       5.268378652647e-04      -2.550599458704e-06 
   88       2.160701899793e+03       5.097935724467e-01       0.000000000000e+00      -1.335077195230e+01       1.137431351025e-07       5.201841055176e-04      -2.583489050871e-06 
   89       2.186212339687e+03       5.236384316744e-01       0.000000000000e+00      -1.389705601980e+01       1.130766809743e-07       5.137166289717e-04      -2.600647945118e-06 
   90       2.211927420666e+03       5.375179124890e-01       0.000000000000e+00      -1.444942499195e+01       1.124180788721e-07       5.074198243321e-04      -2.604803058798e-06 
   91       2.237844775774e+03       5.514179549363e-01       0.000000000000e+00      -1.500760341471e+01       1.117637711965e-07       5.012688277491e-04      -2.599185962104e-06 
   92       2.263960248048e+03       5.653239805402e-01       0.000000000000e+00      -1.557131184249e+01       1.111074397255e-07       4.952288119753e-04      -2.587563198798e-06 
   93       2.290269637438e+03       5.792217710297e-01       0.000000000000e+00      -1.614025205409e+01       1.104426147539e-07       4.892663665614e-04      -2.573467474109e-06 
   94       2.316774409462e+03       5.931002692631e-01       0.000000000000e+00      -1.671405967973e+01       1.097721593239e-07       4.833882200815e-04      -2.557622377555e-06 
   95       2.343476706675e+03       6.069491899793e-01       0.000000000000e+00      -1.729234482197e+01       1.091009995954e-07       4.776098715415e-04      -2.539996106641e-06 
   96       2.370377549903e+03       6.207581781860e-01       0.000000000000e+00      -1.787470643800e+01       1.084333063241e-07       4.719439672208e-04      -2.520550482838e-06 
   97       2.397476786224e+03       6.345168150646e-01       0.000000000000e+00      -1.846073235324e+01       1.077723612378e-07       4.664000186329e-04      -2.499240366969e-06 
   98       2.424773036968e+03       6.482146238734e-01       0.000000000000e+00      -1.904999927504e+01       1.071204158199e-07       4.609841129124e-04      -2.476013058325e-06 
   99       2.452263645707e+03       6.618410758522e-01       0.000000000000e+00      -1.964207280626e+01       1.064785423361e-07       4.556986156273e-04      -2.450807677473e-06 
  100       2.479944626243e+03       6.753855961266e-01       0.000000000000e+00      -2.023650745893e+01       1.058464769426e-07       4.505418660184e-04      -2.423554532782e-06 
  101       2.507810610604e+03       6.888375696111e-01       0.000000000000e+00      -2.083284666786e+01       1.052224547114e-07       4.455078646633e-04      -2.394174470659e-06 
  102       2.535854797037e+03       7.021863469145e-01       0.000000000000e+00      -2.143062280430e+01       1.046030364113e-07       4.405859535671e-04      -2.362578209487e-06 
  103       2.564068897995e+03       7.154212502428e-01       0.000000000000e+00      -2.202935718954e+01       1.039829268814e-07       4.357604886794e-04      -2.328665657276e-06 
  104       2.592445070574e+03       7.285313869170e-01       0.000000000000e+00      -2.262856881723e+01       1.033569402720e-07       4.310162508476e-04      -2.292399595392e-06 
  105       2.620982116816e+03       7.415050485189e-01       0.000000000000e+00      -2.322780183283e+01       1.027269370187e-07       4.263566735754e-04      -2.254045358139e-06 
  106       2.649680027920e+03       7.543302412071e-01       0.000000000000e+00      -2.382660180891e+01       1.020963866640e-07       4.217886724695e-04      -2.213978251482e-06 
  107       2.678538046729e+03       7.669948746007e-01       0.000000000000e+00      -2.442450747602e+01       1.014683034850e-07       4.173170581538e-04      -2.172615111933e-06 
