# total [l(l+1)/2pi] C_l's (units: [microK]^2)
# for l=2 to 3000, i.e. number of multipoles equal to 2999
#
# -> if you don't want to see such a header, set 'headers' to 'no' in input file
# -> for CMB lensing (d), these are C_l^dd for the deflection field.
#    Remember the conversion factors:
#    C_l^dd (deflection) = l(l+1) C_l^phi-phi
#    C_l^gg (shear/convergence) = 1/4 (l(l+1))^2 C_l^phi-phi
#
# 1:l     2:TT                     3:EE                     4:BB                     5:TE                     6:dd                     7:dT                     8:dE                 
    2       1.069690589696e+03       6.313719705355e-02       0.000000000000e+00       3.712571214016e+00       4.904152022876e-08       3.200209140526e-03      -1.746284669952e-05 
    3       1.005830244034e+03       1.146341708720e-01       0.000000000000e+00       4.856393067949e+00       6.150199479630e-08       3.233227595314e-03      -2.247536691484e-05 
    4       9.425578616245e+02       1.437285813874e-01       0.000000000000e+00       5.179430228911e+00       7.156971817941e-08       3.178880046399e-03      -2.408413727409e-05 
    5       8.919406069685e+02       1.437405470139e-01       0.000000000000e+00       4.986694533664e+00       8.025508385712e-08       3.092274531168e-03      -2.301964778504e-05 
    6       8.539252917063e+02       1.209505099859e-01       0.000000000000e+00       4.504095671279e+00       8.781844405518e-08       2.990728258425e-03      -1.991527093372e-05 
    7       8.263987878250e+02       8.785729385648e-02       0.000000000000e+00       3.893534262095e+00       9.442916773319e-08       2.883016526853e-03      -1.548857948105e-05 
    8       8.077519080714e+02       5.618021250197e-02       0.000000000000e+00       3.255704489493e+00       1.002722356726e-07       2.774473753777e-03      -1.046254363154e-05 
    9       7.956712878207e+02       3.291569357659e-02       0.000000000000e+00       2.654233691767e+00       1.055274397347e-07       2.668043814293e-03      -5.501671878560e-06 
   10       7.890604455235e+02       1.965244635182e-02       0.000000000000e+00       2.129969758673e+00       1.103063564599e-07       2.565358119812e-03      -1.148535129228e-06 
   11       7.866570540983e+02       1.417753105418e-02       0.000000000000e+00       1.707296794974e+00       1.114520675416e-07       2.472722036368e-03       2.187463913233e-06 
   12       7.872703888442e+02       1.287958167566e-02       0.000000000000e+00       1.397833901480e+00       1.151066758071e-07       2.375832813553e-03       4.368098427421e-06 
   13       7.907383114358e+02       1.270441409374e-02       0.000000000000e+00       1.200509610516e+00       1.183778906293e-07       2.285035048961e-03       5.343153563765e-06 
   14       7.961934766152e+02       1.206561485650e-02       0.000000000000e+00       1.102943021245e+00       1.213105955589e-07       2.205409753892e-03       5.232468669638e-06 
   15       8.030876777558e+02       1.076298752540e-02       0.000000000000e+00       1.085892587907e+00       1.239412881419e-07       2.128131257860e-03       4.237825523063e-06 
   16       8.113946641373e+02       9.348535620599e-03       0.000000000000e+00       1.126321567370e+00       1.262992904314e-07       2.055138532957e-03       2.654749139398e-06 
   17       8.206342529248e+02       8.439585866770e-03       0.000000000000e+00       1.200940456296e+00       1.284117568399e-07       1.987455967432e-03       7.970032941133e-07 
   18       8.307689732104e+02       8.310574392260e-03       0.000000000000e+00       1.289464089494e+00       1.302516848938e-07       1.923971158742e-03      -1.038312807306e-06 
   19       8.418180087103e+02       8.787580341594e-03       0.000000000000e+00       1.378493449267e+00       1.319904947712e-07       1.866239507102e-03      -2.630199895185e-06 
   20       8.533575793111e+02       9.492054025530e-03       0.000000000000e+00       1.455081544937e+00       1.334874807653e-07       1.811710969701e-03      -3.789698352794e-06 
   21       8.654330530817e+02       1.014678568670e-02       0.000000000000e+00       1.514944135981e+00       1.348310125590e-07       1.759417824264e-03      -4.428667128502e-06 
   22       8.780105342743e+02       1.052780578349e-02       0.000000000000e+00       1.557411674602e+00       1.359960150805e-07       1.706641162101e-03      -4.548822286386e-06 
   23       8.910487555221e+02       1.073519683914e-02       0.000000000000e+00       1.584405220116e+00       1.370533565174e-07       1.655378183777e-03      -4.207098343762e-06 
   24       9.043735564697e+02       1.100411007188e-02       0.000000000000e+00       1.599728205536e+00       1.379542104911e-07       1.607862171801e-03      -3.532820635026e-06 
   25       9.180798610122e+02       1.153392217756e-02       0.000000000000e+00       1.608224119632e+00       1.387534130455e-07       1.564473592093e-03      -2.656723830339e-06 
   26       9.322119980743e+02       1.249824722181e-02       0.000000000000e+00       1.615559151580e+00       1.394289186209e-07       1.523424015499e-03      -1.742847224271e-06 
   27       9.466468721433e+02       1.389342971284e-02       0.000000000000e+00       1.625779249283e+00       1.400083145250e-07       1.483363567526e-03      -9.260383254811e-07 
   28       9.611576740333e+02       1.564921675710e-02       0.000000000000e+00       1.642142997533e+00       1.404557043422e-07       1.442456782631e-03      -3.333773364403e-07 
   29       9.758070053045e+02       1.771901634943e-02       0.000000000000e+00       1.665137297040e+00       1.408449540484e-07       1.401887694686e-03      -1.229851885476e-08 
   30       9.906783125739e+02       2.004753856432e-02       0.000000000000e+00       1.693958212806e+00       1.411963120327e-07       1.363491147824e-03       3.181187270381e-08 
   31       1.005783848776e+03       2.257410491945e-02       0.000000000000e+00       1.726933119158e+00       1.414284729734e-07       1.328472571777e-03      -1.800212424113e-07 
   32       1.021148284253e+03       2.529373770600e-02       0.000000000000e+00       1.760923727245e+00       1.415866776883e-07       1.296989090482e-03      -5.989721653745e-07 
   33       1.036737709224e+03       2.821839409704e-02       0.000000000000e+00       1.791550693704e+00       1.416999068141e-07       1.267992443454e-03      -1.139663335988e-06 
   34       1.052471684945e+03       3.135352319628e-02       0.000000000000e+00       1.813981318567e+00       1.417319159613e-07       1.239710251227e-03      -1.692268703090e-06 
   35       1.068376475155e+03       3.467114559399e-02       0.000000000000e+00       1.825448490943e+00       1.417148411585e-07       1.211996308623e-03      -2.189528644655e-06 
   36       1.084473482905e+03       3.812654005674e-02       0.000000000000e+00       1.823550380904e+00       1.416553137969e-07       1.184872987512e-03      -2.566983446358e-06 
   37       1.100751522777e+03       4.168083945338e-02       0.000000000000e+00       1.806105307464e+00       1.415136256845e-07       1.158084415631e-03      -2.760768191172e-06 
   38       1.117230366417e+03       4.535655212189e-02       0.000000000000e+00       1.772994485672e+00       1.413284418880e-07       1.131913345339e-03      -2.765084502683e-06 
   39       1.133909973703e+03       4.920076734914e-02       0.000000000000e+00       1.724946815198e+00       1.411358668587e-07       1.106619161264e-03      -2.602265585125e-06 
   40       1.150747992411e+03       5.327118940718e-02       0.000000000000e+00       1.663079863540e+00       1.409226420051e-07       1.082161772220e-03      -2.311435127695e-06 
   41       1.167686777240e+03       5.762420586509e-02       0.000000000000e+00       1.588778440988e+00       1.406415038454e-07       1.058318823981e-03      -1.944256601182e-06 
   42       1.184755335186e+03       6.227274029003e-02       0.000000000000e+00       1.503218144542e+00       1.403151929690e-07       1.035269236430e-03      -1.543208925863e-06 
   43       1.201993348133e+03       6.721585601251e-02       0.000000000000e+00       1.407731971146e+00       1.399692453458e-07       1.013182303546e-03      -1.157080764776e-06 
   44       1.219420631822e+03       7.245003672249e-02       0.000000000000e+00       1.303961635131e+00       1.395961744480e-07       9.920248083974e-04      -8.482881192330e-07 
   45       1.237041614256e+03       7.797017793879e-02       0.000000000000e+00       1.193374378644e+00       1.391678542288e-07       9.716434379621e-04      -6.779079577723e-07 
   46       1.254865411833e+03       8.377331764610e-02       0.000000000000e+00       1.075602128790e+00       1.387086540202e-07       9.521523737515e-04      -6.488964643104e-07 
   47       1.272888113922e+03       8.985573023677e-02       0.000000000000e+00       9.496339763409e-01       1.382470483054e-07       9.336510963929e-04      -7.403509159749e-07 
   48       1.291084971175e+03       9.621175967791e-02       0.000000000000e+00       8.142609073994e-01       1.377910799637e-07       9.160954489063e-04      -9.206580742272e-07 
   49       1.309408636113e+03       1.028337155385e-01       0.000000000000e+00       6.680635785386e-01       1.373221567966e-07       8.992732212488e-04      -1.146170586237e-06 
   50       1.327810166612e+03       1.097139874658e-01       0.000000000000e+00       5.096176856157e-01       1.368071638988e-07       8.828979074280e-04      -1.369008807053e-06 
   51       1.346312839315e+03       1.168523064645e-01       0.000000000000e+00       3.382041499155e-01       1.362602610146e-07       8.669979465572e-04      -1.567624417964e-06 
   52       1.364955330785e+03       1.242502748862e-01       0.000000000000e+00       1.532705725844e-01       1.357017736059e-07       8.516393506378e-04      -1.726134429190e-06 
   53       1.383770033857e+03       1.319093206606e-01       0.000000000000e+00      -4.577144869541e-02       1.351387322466e-07       8.368080415223e-04      -1.825975033809e-06 
   54       1.402782369422e+03       1.398306977206e-01       0.000000000000e+00      -2.595483048659e-01       1.345612242658e-07       8.223973928315e-04      -1.845683590019e-06 
   55       1.422010196274e+03       1.480153302932e-01       0.000000000000e+00      -4.885131722455e-01       1.339508772307e-07       8.082648365316e-04      -1.767815397749e-06 
   56       1.441463445633e+03       1.564632995036e-01       0.000000000000e+00      -7.322464140234e-01       1.333213566410e-07       7.944578437412e-04      -1.603282225271e-06 
   57       1.461143190361e+03       1.651742299767e-01       0.000000000000e+00      -9.899848606403e-01       1.326904202076e-07       7.810481861537e-04      -1.375571263546e-06 
   58       1.481040869440e+03       1.741474292608e-01       0.000000000000e+00      -1.260813588003e+00       1.320670835661e-07       7.680632093210e-04      -1.114964918532e-06 
   59       1.501137603575e+03       1.833818821695e-01       0.000000000000e+00      -1.543659596600e+00       1.314493766384e-07       7.554792022924e-04      -8.591807835167e-07 
   60       1.521403510796e+03       1.928762451229e-01       0.000000000000e+00      -1.837285490624e+00       1.308218951463e-07       7.432144806905e-04      -6.540342927438e-07 
   61       1.541809373647e+03       2.026287304634e-01       0.000000000000e+00      -2.140577028825e+00       1.301639924671e-07       7.311689237782e-04      -5.426103518781e-07 
   62       1.562366249290e+03       2.126367418594e-01       0.000000000000e+00      -2.453495499970e+00       1.294852433711e-07       7.193752457180e-04      -5.268633282150e-07 
   63       1.583093576303e+03       2.228971466504e-01       0.000000000000e+00      -2.776328874628e+00       1.288008675894e-07       7.078854764080e-04      -5.943955451050e-07 
   64       1.604007320951e+03       2.334063696838e-01       0.000000000000e+00      -3.109419740936e+00       1.281210855032e-07       6.967251653699e-04      -7.285054981224e-07 
   65       1.625119684688e+03       2.441603841649e-01       0.000000000000e+00      -3.453168308046e+00       1.274498810914e-07       6.858897706657e-04      -9.077966310032e-07 
   66       1.646438811674e+03       2.551547025079e-01       0.000000000000e+00      -3.808035409567e+00       1.267836608882e-07       6.753409059423e-04      -1.105773150612e-06 
   67       1.667968496284e+03       2.663843671861e-01       0.000000000000e+00      -4.174545507016e+00       1.261098056388e-07       6.650024456053e-04      -1.290422880940e-06 
   68       1.689710902765e+03       2.778439182148e-01       0.000000000000e+00      -4.553156018737e+00       1.254129299870e-07       6.547918207653e-04      -1.431466978239e-06 
   69       1.711676017957e+03       2.895273084001e-01       0.000000000000e+00      -4.943827846964e+00       1.247003989939e-07       6.447344001967e-04      -1.525686688563e-06 
   70       1.733873597301e+03       3.014279544016e-01       0.000000000000e+00      -5.346372823920e+00       1.239841714882e-07       6.348763925189e-04      -1.578475019247e-06 
   71       1.756310110567e+03       3.135387490089e-01       0.000000000000e+00      -5.760579278731e+00       1.232732157198e-07       6.252508469171e-04      -1.596947662094e-06 
   72       1.778988526400e+03       3.258520513942e-01       0.000000000000e+00      -6.186211622085e+00       1.225728184663e-07       6.158759182814e-04      -1.590084712248e-06 
   73       1.801908096867e+03       3.383596773650e-01       0.000000000000e+00      -6.623009930895e+00       1.218838413818e-07       6.067530696291e-04      -1.568876630770e-06 
   74       1.825064142003e+03       3.510528896175e-01       0.000000000000e+00      -7.070689532952e+00       1.212019230651e-07       5.978652118088e-04      -1.546474450937e-06 
   75       1.848447834358e+03       3.639223879892e-01       0.000000000000e+00      -7.528940591594e+00       1.205166253275e-07       5.891747804861e-04      -1.538344228241e-06 
   76       1.872049875996e+03       3.769586781698e-01       0.000000000000e+00      -7.997440085260e+00       1.198160511618e-07       5.806408579848e-04      -1.558689597059e-06 
   77       1.895872779866e+03       3.901532770045e-01       0.000000000000e+00      -8.475891186303e+00       1.191048205603e-07       5.722805210492e-04      -1.608218735836e-06 
   78       1.919920446968e+03       4.034977102965e-01       0.000000000000e+00      -8.963990341870e+00       1.183908949893e-07       5.641205714537e-04      -1.683336946326e-06 
   79       1.944194339141e+03       4.169831518928e-01       0.000000000000e+00      -9.461415357481e+00       1.176802285080e-07       5.561789206067e-04      -1.779532915860e-06 
   80       1.968693343423e+03       4.306004216978e-01       0.000000000000e+00      -9.967825235860e+00       1.169763652973e-07       5.484635898846e-04      -1.891312525538e-06 
   81       1.993413636422e+03       4.443399836870e-01       0.000000000000e+00      -1.048286001576e+01       1.162800098048e-07       5.409716789781e-04      -2.012130893188e-06 
   82       2.018348548673e+03       4.581919439201e-01       0.000000000000e+00      -1.100614061079e+01       1.155885687990e-07       5.336883022534e-04      -2.134322651076e-06 
   83       2.043488429009e+03       4.721460485549e-01       0.000000000000e+00      -1.153726864824e+01       1.148956646254e-07       5.265854931262e-04      -2.249030458383e-06 
   84       2.068824334144e+03       4.861913874999e-01       0.000000000000e+00      -1.207584883713e+01       1.141941999679e-07       5.196336645306e-04      -2.348049366682e-06 
   85       2.094360097324e+03       5.003154532769e-01       0.000000000000e+00      -1.262156068598e+01       1.134879348591e-07       5.128418314849e-04      -2.430055796023e-06 
   86       2.120102021023e+03       5.145049217701e-01       0.000000000000e+00      -1.317409843407e+01       1.127827483930e-07       5.062252756156e-04      -2.495786415468e-06 
   87       2.146055159317e+03       5.287459258836e-01       0.000000000000e+00      -1.373314979362e+01       1.120831543211e-07       4.997932561006e-04      -2.546273922653e-06 
   88       2.172223246535e+03       5.430240486071e-01       0.000000000000e+00      -1.429839616727e+01       1.113920557314e-07       4.935484188603e-04      -2.582867995340e-06 
   89       2.198608625912e+03       5.573243160825e-01       0.000000000000e+00      -1.486951286550e+01       1.107104846355e-07       4.874861887846e-04      -2.607256766210e-06 
   90       2.225212178249e+03       5.716311906700e-01       0.000000000000e+00      -1.544616932416e+01       1.100373261110e-07       4.815941449965e-04      -2.621488820897e-06 
   91       2.252033250558e+03       5.859285640144e-01       0.000000000000e+00      -1.602802932188e+01       1.093690266457e-07       4.758513791514e-04      -2.627995719258e-06 
   92       2.279069584723e+03       6.001997501113e-01       0.000000000000e+00      -1.661475119760e+01       1.086992863300e-07       4.702278367722e-04      -2.629615039886e-06 
   93       2.306318508055e+03       6.144285570715e-01       0.000000000000e+00      -1.720597775075e+01       1.080216541366e-07       4.646942009948e-04      -2.628982541701e-06 
   94       2.333780864767e+03       6.286027018625e-01       0.000000000000e+00      -1.780130373205e+01       1.073389609244e-07       4.592556176928e-04      -2.626498220003e-06 
   95       2.361457546630e+03       6.427108987145e-01       0.000000000000e+00      -1.840030384264e+01       1.066560897451e-07       4.539242998720e-04      -2.621946634355e-06 
   96       2.389348230459e+03       6.567418339504e-01       0.000000000000e+00      -1.900254269057e+01       1.059771730770e-07       4.487093491601e-04      -2.615087235377e-06 
   97       2.417451324085e+03       6.706841738600e-01       0.000000000000e+00      -1.960757486656e+01       1.053054603841e-07       4.436164657720e-04      -2.605652911070e-06 
   98       2.445763912333e+03       6.845265725723e-01       0.000000000000e+00      -2.021494501990e+01       1.046431781554e-07       4.386476508133e-04      -2.593348500192e-06 
   99       2.474281702998e+03       6.982576799298e-01       0.000000000000e+00      -2.082418793428e+01       1.039913822639e-07       4.338009009209e-04      -2.577849272674e-06 
  100       2.502998972819e+03       7.118661493613e-01       0.000000000000e+00      -2.143482860363e+01       1.033498024832e-07       4.290698952414e-04      -2.558799377092e-06 
  101       2.531908513456e+03       7.253406457557e-01       0.000000000000e+00      -2.204638230799e+01       1.027166790010e-07       4.244436747476e-04      -2.535810255176e-06 
  102       2.561001577466e+03       7.386698533347e-01       0.000000000000e+00      -2.265835468934e+01       1.020885907682e-07       4.199063138918e-04      -2.508459023375e-06 
  103       2.590267824280e+03       7.518424835268e-01       0.000000000000e+00      -2.327024182744e+01       1.014602755223e-07       4.154365845973e-04      -2.476286821466e-06 
  104       2.619697514016e+03       7.648470373833e-01       0.000000000000e+00      -2.388153362359e+01       1.008265790047e-07       4.110145386156e-04      -2.438965302127e-06 
  105       2.649288542803e+03       7.776710393176e-01       0.000000000000e+00      -2.449172430913e+01       1.001893349657e-07       4.066435402506e-04      -2.396838430770e-06 
  106       2.679040261535e+03       7.903017140518e-01       0.000000000000e+00      -2.510030350447e+01       9.955197297415e-08       4.023320434669e-04      -2.350486974187e-06 
  107       2.708951283931e+03       8.027262279438e-01       0.000000000000e+00      -2.570675314884e+01       9.891747126099e-08       3.980869220194e-04      -2.300573666297e-06 
