# Matter power spectrum P(k) at redshift z=0
# for k=1.01948e-05 to 7.94874 h/Mpc,
# number of wavenumbers equal to 609
#    1:k (h/Mpc)              2:P (Mpc/h)^3        
       1.019475915369e-05       5.003545262946e+01 
       2.294706942182e-05       1.099228056895e+02 
       3.574294152590e-05       1.689611634913e+02 
       4.861611693410e-05       2.277031529075e+02 
       6.160088079311e-05       2.864732184269e+02 
       7.473236158589e-05       3.455209312234e+02 
       8.804684014440e-05       4.050639258379e+02 
       1.015820720536e-04       4.653055581395e+02 
       1.153776275143e-04       5.264440560508e+02 
       1.294752527649e-04       5.886781410674e+02 
       1.439192571723e-04       6.522110084181e+02 
       1.587569300560e-04       7.171887628380e+02 
       1.740389911552e-04       7.839487260989e+02 
       1.898200783352e-04       8.526718475159e+02 
       2.061592755517e-04       9.236074187372e+02 
       2.231206831557e-04       9.970225260439e+02 
       2.407740311616e-04       1.073204522711e+03 
       2.591953339356e-04       1.152463525086e+03 
       2.784675816432e-04       1.235134935217e+03 
       2.986814594364e-04       1.321581911572e+03 
       3.199360794204e-04       1.412197766576e+03 
       3.423397025561e-04       1.507408114068e+03 
       3.660104174668e-04       1.607672657812e+03 
       3.910767303736e-04       1.713486388764e+03 
       4.176780050256e-04       1.825379940545e+03 
       4.459646738949e-04       1.943918706303e+03 
       4.760981230951e-04       2.069700358819e+03 
       5.082501355073e-04       2.203350289479e+03 
       5.426017628227e-04       2.345514478822e+03 
       5.793414925758e-04       2.496849224930e+03 
       6.186625871674e-04       2.658007520893e+03 
       6.607595055931e-04       2.829621719365e+03 
       7.058233815878e-04       3.012282568556e+03 
       7.540366273582e-04       3.206515373440e+03 
       8.055668565479e-04       3.412754082714e+03 
       8.605604604047e-04       3.631315202539e+03 
       9.191363032436e-04       3.862373535993e+03 
       9.813800949620e-04       4.105942245318e+03 
       1.047340016709e-03       4.361859816555e+03 
       1.117024098737e-03       4.629785504091e+03 
       1.190399676646e-03       4.909204857481e+03 
       1.267395010194e-03       5.199444744686e+03 
       1.347902886081e-03       5.499683425354e+03 
       1.431785798435e-03       5.808994425748e+03 
       1.518882153478e-03       6.126415024936e+03 
       1.609012899061e-03       6.450917812779e+03 
       1.701988028950e-03       6.781465233716e+03 
       1.797612528360e-03       7.117036093461e+03 
       1.895691475297e-03       7.456646691322e+03 
       1.996034158711e-03       7.799367648295e+03 
       2.098457196709e-03       8.144335250389e+03 
       2.202786725537e-03       8.490758045454e+03 
       2.308859782262e-03       8.837919734178e+03 
       2.416525026550e-03       9.185177912744e+03 
       2.525642947905e-03       9.531962063218e+03 
       2.636085692196e-03       9.877769190183e+03 
       2.747736621910e-03       1.022215829244e+04 
       2.860489703016e-03       1.056474525178e+04 
       2.974248790649e-03       1.090519863597e+04 
       3.088926867538e-03       1.124322920524e+04 
       3.204445273894e-03       1.157859030166e+04 
       3.320732955321e-03       1.191106647583e+04 
       3.437725746040e-03       1.224047562171e+04 
       3.555365697705e-03       1.256665878569e+04 
       3.673600459124e-03       1.288948252239e+04 
       3.792382708662e-03       1.320882825324e+04 
       3.911669638723e-03       1.352459861937e+04 
       4.031422490187e-03       1.383670580758e+04 
       4.151606133778e-03       1.414507683796e+04 
       4.272188694815e-03       1.444964671344e+04 
       4.393141217651e-03       1.475036060534e+04 
       4.514437366083e-03       1.504716938666e+04 
       4.636053156183e-03       1.534003152572e+04 
       4.757966718169e-03       1.562891255571e+04 
       4.880158084240e-03       1.591377301197e+04 
       5.002608999518e-03       1.619459349782e+04 
       5.125302753545e-03       1.647134066060e+04 
       5.248224030023e-03       1.674399694831e+04 
       5.371358772732e-03       1.701254097368e+04 
       5.494694065805e-03       1.727695850084e+04 
       5.618218026707e-03       1.753723286112e+04 
       5.741919710500e-03       1.779335818343e+04 
       5.865789024098e-03       1.804531942353e+04 
       5.989816649391e-03       1.829312486740e+04 
       6.113993974250e-03       1.853675297542e+04 
       6.238313030518e-03       1.877621183438e+04 
       6.362766438230e-03       1.901151005243e+04 
       6.487347355364e-03       1.924264107582e+04 
       6.612049432521e-03       1.946961410193e+04 
       6.736866772017e-03       1.969244462296e+04 
       6.861793890883e-03       1.991113949885e+04 
       6.986825687390e-03       2.012571745159e+04 
       7.111957410707e-03       2.033618767681e+04 
       7.237184633377e-03       2.054257304200e+04 
       7.362503226311e-03       2.074488971890e+04 
       7.487909336053e-03       2.094316584966e+04 
       7.613399364078e-03       2.113744050461e+04 
       7.738969947930e-03       2.132772184260e+04 
       7.864617944000e-03       2.151404164985e+04 
       7.990340411812e-03       2.169644207675e+04 
       8.116134599637e-03       2.187494661438e+04 
       8.241997931341e-03       2.204958540457e+04 
       8.367927994321e-03       2.222041410605e+04 
       8.493922528452e-03       2.238747154283e+04 
       8.619979415933e-03       2.255077116574e+04 
       8.746096671961e-03       2.271036992093e+04 
       8.872272436150e-03       2.286630466173e+04 
       8.998504964634e-03       2.301862094471e+04 
       9.124792622796e-03       2.316735218513e+04 
       9.251133878552e-03       2.331254726304e+04 
       9.377527296168e-03       2.345425163135e+04 
       9.503971530539e-03       2.359249539575e+04 
       9.630465321907e-03       2.372732990365e+04 
       9.757007490974e-03       2.385880128620e+04 
       9.883596934379e-03       2.398694507806e+04 
       1.001023262051e-02       2.411180589008e+04 
       1.013691358564e-02       2.423342503682e+04 
       1.026363893029e-02       2.435185535411e+04 
       1.039040781593e-02       2.446713130419e+04 
       1.051721946186e-02       2.457928885832e+04 
       1.064407314236e-02       2.468838128329e+04 
       1.077096818397e-02       2.479443156686e+04 
       1.089790396306e-02       2.489748565277e+04 
       1.102487990349e-02       2.499760058562e+04 
       1.115189547446e-02       2.509478251310e+04 
       1.127895018854e-02       2.518908786110e+04 
       1.140604359980e-02       2.528054768887e+04 
       1.153317530207e-02       2.536920674054e+04 
       1.166034492736e-02       2.545510724489e+04 
       1.178755214431e-02       2.553825783170e+04 
       1.191479665689e-02       2.561871491245e+04 
       1.204207820300e-02       2.569649030288e+04 
       1.216939655336e-02       2.577162551169e+04 
       1.229675151033e-02       2.584416528856e+04 
       1.242414290690e-02       2.591419367641e+04 
       1.255157060569e-02       2.598164939020e+04 
       1.267903449811e-02       2.604656337051e+04 
       1.280653450349e-02       2.610903991927e+04 
       1.293407056831e-02       2.616902371832e+04 
       1.306164266549e-02       2.622661729775e+04 
       1.318925079377e-02       2.628181647671e+04 
       1.331689497703e-02       2.633461551257e+04 
       1.344457526381e-02       2.638512956936e+04 
       1.357229172673e-02       2.643327185782e+04 
       1.370004446208e-02       2.647916489455e+04 
       1.382783358933e-02       2.652279871099e+04 
       1.395565925079e-02       2.656416051181e+04 
       1.408352161121e-02       2.660335150981e+04 
       1.421142085752e-02       2.664034268865e+04 
       1.433935719849e-02       2.667515047610e+04 
       1.446733086447e-02       2.670783168742e+04 
       1.459534210723e-02       2.673839384998e+04 
       1.462511907825e-02       2.674522349982e+04 
       1.472339119969e-02       2.676687863413e+04 
       1.485147843580e-02       2.679329919387e+04 
       1.497960413039e-02       2.681765588483e+04 
       1.510776861902e-02       2.684000578994e+04 
       1.523597225794e-02       2.686038770033e+04 
       1.536421542397e-02       2.687874337834e+04 
       1.549249851450e-02       2.689520953087e+04 
       1.562082194745e-02       2.690972506783e+04 
       1.574918616123e-02       2.692237013991e+04 
       1.587759161483e-02       2.693308920908e+04 
       1.600603878781e-02       2.694195656777e+04 
       1.613452818035e-02       2.694904677260e+04 
       1.626306031337e-02       2.695430003599e+04 
       1.639163572859e-02       2.695773914528e+04 
       1.652025498866e-02       2.695943416339e+04 
       1.664891867730e-02       2.695943331963e+04 
       1.677762739941e-02       2.695771044270e+04 
       1.690638178130e-02       2.695426618735e+04 
       1.703518247082e-02       2.694916803663e+04 
       1.716403013759e-02       2.694245160520e+04 
       1.729292547323e-02       2.693407789642e+04 
       1.742186919154e-02       2.692407960729e+04 
       1.755086202883e-02       2.691255493538e+04 
       1.767990474413e-02       2.689949136912e+04 
       1.780899811950e-02       2.688487747234e+04 
       1.793814296031e-02       2.686870383986e+04 
       1.806734009560e-02       2.685119440469e+04 
       1.819659037838e-02       2.683208619263e+04 
       1.832589468600e-02       2.681160041366e+04 
       1.845525392048e-02       2.678966777476e+04 
       1.858466900897e-02       2.676630506911e+04 
       1.871414090407e-02       2.674161248283e+04 
       1.884367058432e-02       2.671560028953e+04 
       1.897325905458e-02       2.668826923615e+04 
       1.910290734653e-02       2.665958275969e+04 
       1.923261651910e-02       2.662957578478e+04 
       1.936238765900e-02       2.659837025164e+04 
       1.949222188121e-02       2.656586219492e+04 
       1.962212032950e-02       2.653219166341e+04 
       1.975208417700e-02       2.649724386267e+04 
       1.988211462673e-02       2.646120884211e+04 
       2.001221291222e-02       2.642399794229e+04 
       2.014238029812e-02       2.638559847571e+04 
       2.027261808077e-02       2.634600997955e+04 
       2.040292758891e-02       2.630535877155e+04 
       2.053331018434e-02       2.626373364010e+04 
       2.066376726256e-02       2.622095925347e+04 
       2.079430025355e-02       2.617715931091e+04 
       2.092491062246e-02       2.613236069092e+04 
       2.105559987039e-02       2.608648524141e+04 
       2.118636953518e-02       2.603967309983e+04 
       2.131722119220e-02       2.599184102351e+04 
       2.144815645520e-02       2.594311111574e+04 
       2.157917697716e-02       2.589339927752e+04 
       2.171028445120e-02       2.584283813152e+04 
       2.184148061148e-02       2.579131598047e+04 
       2.197276723413e-02       2.573887253987e+04 
       2.210414613826e-02       2.568565662370e+04 
       2.223561918696e-02       2.563156835642e+04 
       2.236718828831e-02       2.557662444352e+04 
       2.249885539647e-02       2.552089728683e+04 
       2.263062251278e-02       2.546435204710e+04 
       2.276249168690e-02       2.540705913930e+04 
       2.289446501798e-02       2.534893257919e+04 
       2.302654465586e-02       2.529010999823e+04 
       2.315873280235e-02       2.523064785877e+04 
       2.329103171248e-02       2.517024100854e+04 
       2.342344369586e-02       2.510925697280e+04 
       2.355597111802e-02       2.504758921242e+04 
       2.368861640187e-02       2.498519807824e+04 
       2.382138202910e-02       2.492224559036e+04 
       2.395427054174e-02       2.485858709076e+04 
       2.408728454368e-02       2.479427558967e+04 
       2.422042670229e-02       2.472937925548e+04 
       2.435369975009e-02       2.466391610284e+04 
       2.448710648643e-02       2.459778475051e+04 
       2.462064977927e-02       2.453124132277e+04 
       2.475433256703e-02       2.446397874774e+04 
       2.488815786045e-02       2.439617496268e+04 
       2.502212874452e-02       2.432786330932e+04 
       2.515624838053e-02       2.425907652075e+04 
       2.529052000816e-02       2.418979176303e+04 
       2.542494694757e-02       2.412000051086e+04 
       2.555953260169e-02       2.404972667074e+04 
       2.569428045848e-02       2.397901442511e+04 
       2.582919409332e-02       2.390776259543e+04 
       2.596427717147e-02       2.383623873518e+04 
       2.609953345062e-02       2.376412031455e+04 
       2.623496678352e-02       2.369164903512e+04 
       2.637058112073e-02       2.361882467283e+04 
       2.650638051338e-02       2.354549522528e+04 
       2.664236911619e-02       2.347184353628e+04 
       2.677855119041e-02       2.339796791873e+04 
       2.691493110702e-02       2.332356536929e+04 
       2.705151334995e-02       2.324873693180e+04 
       2.718830251947e-02       2.317384850517e+04 
       2.732530333568e-02       2.309848505967e+04 
       2.746252064212e-02       2.302281605895e+04 
       2.759995940958e-02       2.294689423534e+04 
       2.773762473993e-02       2.287061707913e+04 
       2.787552187023e-02       2.279415137325e+04 
       2.801365617693e-02       2.271737104132e+04 
       2.815203318019e-02       2.264030862717e+04 
       2.829065854849e-02       2.256304273475e+04 
       2.842953810327e-02       2.248563122306e+04 
       2.856867782388e-02       2.240782650287e+04 
       2.870808385267e-02       2.232986242230e+04 
       2.884776250024e-02       2.225168444340e+04 
       2.898772025103e-02       2.217337558561e+04 
       2.912796376897e-02       2.209483475636e+04 
       2.926849990352e-02       2.201615837810e+04 
       2.940933569586e-02       2.193727156167e+04 
       2.955047838533e-02       2.185823046475e+04 
       2.969193541625e-02       2.177918589000e+04 
       2.983371444489e-02       2.169966331547e+04 
       2.997582334683e-02       2.162013861019e+04 
       3.011827022460e-02       2.154058015918e+04 
       3.026106341569e-02       2.146077003403e+04 
       3.040421150082e-02       2.138095955688e+04 
       3.054772331270e-02       2.130104708953e+04 
       3.069160794510e-02       2.122093945319e+04 
       3.083587476232e-02       2.114084951289e+04 
       3.098053340914e-02       2.106065010473e+04 
       3.112559382120e-02       2.098029566242e+04 
       3.127106623588e-02       2.089995197405e+04 
       3.141696120362e-02       2.081945641522e+04 
       3.156328959989e-02       2.073902041110e+04 
       3.171006263759e-02       2.065848249313e+04 
       3.185729188018e-02       2.057791179339e+04 
       3.200498925536e-02       2.049723506286e+04 
       3.215316706945e-02       2.041646926456e+04 
       3.230183802245e-02       2.033578753156e+04 
       3.245101522393e-02       2.025502955592e+04 
       3.260071220961e-02       2.017430842636e+04 
       3.275094295890e-02       2.009350568596e+04 
       3.290172191322e-02       2.001283559414e+04 
       3.305306399541e-02       1.993197703200e+04 
       3.320498463004e-02       1.985120657125e+04 
       3.335749976485e-02       1.977036217778e+04 
       3.351062589336e-02       1.968952512272e+04 
       3.366438007865e-02       1.960868907586e+04 
       3.381877997850e-02       1.952805645724e+04 
       3.397384387187e-02       1.944736714782e+04 
       3.412959068694e-02       1.936663810228e+04 
       3.428604003061e-02       1.928579769317e+04 
       3.444321221983e-02       1.920520402717e+04 
       3.460112831468e-02       1.912466601149e+04 
       3.475981015333e-02       1.904416112959e+04 
       3.491928038922e-02       1.896345417351e+04 
       3.507956253028e-02       1.888293339643e+04 
       3.524068098071e-02       1.880237479408e+04 
       3.540266108520e-02       1.872192662261e+04 
       3.556552917595e-02       1.864151721510e+04 
       3.572931262266e-02       1.856084417118e+04 
       3.589403988562e-02       1.848072054588e+04 
       3.605974057236e-02       1.840055447394e+04 
       3.622644549785e-02       1.832025262701e+04 
       3.639418674880e-02       1.824017194719e+04 
       3.656299775220e-02       1.815986480617e+04 
       3.673291334851e-02       1.807988778058e+04 
       3.690396986992e-02       1.799977161269e+04 
       3.707620522403e-02       1.791970077572e+04 
       3.724965898346e-02       1.783985653204e+04 
       3.742437248185e-02       1.775989946415e+04 
       3.760038891687e-02       1.767996274359e+04 
       3.777775346073e-02       1.760016748016e+04 
       3.795651337908e-02       1.752052352672e+04 
       3.813671815877e-02       1.744066034116e+04 
       3.831841964551e-02       1.736091446191e+04 
       3.850167219228e-02       1.728124054518e+04 
       3.868653281940e-02       1.720166633177e+04 
       3.887306138763e-02       1.712194833554e+04 
       3.906132078522e-02       1.704238138984e+04 
       3.925137713057e-02       1.696272617337e+04 
       3.944329999200e-02       1.688321946675e+04 
       3.963716262624e-02       1.680361708411e+04 
       3.983304223775e-02       1.672412826982e+04 
       4.003102026092e-02       1.664460691429e+04 
       4.023118266773e-02       1.656495323610e+04 
       4.043362030356e-02       1.648539229610e+04 
       4.063842925416e-02       1.640588566660e+04 
       4.084571124759e-02       1.632627517508e+04 
       4.105557409479e-02       1.624654627326e+04 
       4.126813217349e-02       1.616707452133e+04 
       4.148350696060e-02       1.608729290201e+04 
       4.170182761882e-02       1.600749824086e+04 
       4.192323164427e-02       1.592770300801e+04 
       4.214786558279e-02       1.584779037884e+04 
       4.237588582362e-02       1.576762393704e+04 
       4.260745948066e-02       1.568767782949e+04 
       4.284276537295e-02       1.560730184791e+04 
       4.308199511781e-02       1.552709092383e+04 
       4.332535435240e-02       1.544650438060e+04 
       4.357306410170e-02       1.536596568034e+04 
       4.382536231440e-02       1.528506679406e+04 
       4.408250559126e-02       1.520394315552e+04 
       4.434477113530e-02       1.512272062773e+04 
       4.461245895800e-02       1.504122145653e+04 
       4.488589438210e-02       1.495951499326e+04 
       4.516543088914e-02       1.487746537123e+04 
       4.545145336880e-02       1.479509918049e+04 
       4.574438183846e-02       1.471234252504e+04 
       4.604467571480e-02       1.462940425349e+04 
       4.635283873608e-02       1.454583649236e+04 
       4.666942465406e-02       1.446202903938e+04 
       4.699504384013e-02       1.437749430959e+04 
       4.733037098175e-02       1.429251404643e+04 
       4.767615408456e-02       1.420705715342e+04 
       4.803322504505e-02       1.412080400718e+04 
       4.840251212059e-02       1.403402120235e+04 
       4.878505470214e-02       1.394637250451e+04 
       4.918202089407e-02       1.385783139270e+04 
       4.959472853196e-02       1.376831699475e+04 
       5.002467042950e-02       1.367789828603e+04 
       5.047354485087e-02       1.358620523398e+04 
       5.094329246565e-02       1.349320068730e+04 
       5.143614137488e-02       1.339882014009e+04 
       5.195466221518e-02       1.330279014415e+04 
       5.250183586899e-02       1.320485998770e+04 
       5.308113694377e-02       1.310486456880e+04 
       5.369663692543e-02       1.300246493198e+04 
       5.435313171487e-02       1.289726016936e+04 
       5.505629898282e-02       1.278864854342e+04 
       5.581289110447e-02       1.267614585183e+04 
       5.663096866304e-02       1.255901151367e+04 
       5.752017623469e-02       1.243605263311e+04 
       5.849205368501e-02       1.230609813294e+04 
       5.956035765035e-02       1.216723202083e+04 
