# Matter power spectrum P(k) at redshift z=0
# for k=1.02989e-05 to 8.2919 h/Mpc,
# number of wavenumbers equal to 613
#    1:k (h/Mpc)              2:P (Mpc/h)^3        
       1.029887249158e-05       4.831828119072e+01 
       2.297337480591e-05       1.052262214002e+02 
       3.569107752033e-05       1.613354808021e+02 
       4.848510829802e-05       2.171644885768e+02 
       6.138912582135e-05       2.730186652132e+02 
       7.443761040902e-05       3.291330805215e+02 
       8.766616364764e-05       3.857126869696e+02 
       1.011118209059e-04       4.429489119538e+02 
       1.148133806295e-04       5.010282650257e+02 
       1.288117543472e-04       5.601376239070e+02 
       1.431503413297e-04       6.204679759110e+02 
       1.578754318006e-04       6.821616273497e+02 
       1.730366424610e-04       7.455263157438e+02 
       1.886873877943e-04       8.107359834987e+02 
       2.048853900875e-04       8.780245297035e+02 
       2.216932302330e-04       9.476424635149e+02 
       2.391789400233e-04       1.019859220745e+03 
       2.574166346351e-04       1.094965527238e+03 
       2.764871811084e-04       1.173275772385e+03 
       2.964788945729e-04       1.255130377324e+03 
       3.174882484570e-04       1.340898080730e+03 
       3.396205775790e-04       1.430978051145e+03 
       3.629907435344e-04       1.525801685272e+03 
       3.877237198982e-04       1.625833905135e+03 
       4.139550403764e-04       1.731573711984e+03 
       4.418310364638e-04       1.843553685655e+03 
       4.715087732766e-04       1.962338071894e+03 
       5.031555748219e-04       2.088519008380e+03 
       5.369480160397e-04       2.222710461540e+03 
       5.730702529627e-04       2.365539375345e+03 
       6.117115701723e-04       2.517633667038e+03 
       6.530630531526e-04       2.679606836895e+03 
       6.973133485421e-04       2.852039164461e+03 
       7.446435613336e-04       3.035455940776e+03 
       7.952214527763e-04       3.230303583107e+03 
       8.491952353798e-04       3.436925026282e+03 
       9.066873910372e-04       3.655536264629e+03 
       9.677890354466e-04       3.886206291214e+03 
       1.032555385054e-03       4.128842590939e+03 
       1.101002827982e-03       4.383184228167e+03 
       1.173107952816e-03       4.648803698446e+03 
       1.248808668687e-03       4.925117722091e+03 
       1.328007299043e-03       5.211397912141e+03 
       1.410575302569e-03       5.506787778031e+03 
       1.496359114150e-03       5.810402618318e+03 
       1.585186532316e-03       6.121275033359e+03 
       1.676873106810e-03       6.438413670688e+03 
       1.771228078630e-03       6.760828972380e+03 
       1.868059561882e-03       7.087554795163e+03 
       1.967178799401e-03       7.417665441596e+03 
       2.068403448118e-03       7.750288080497e+03 
       2.171559942832e-03       8.084611476578e+03 
       2.276485045625e-03       8.419890027661e+03 
       2.383026716761e-03       8.755444977754e+03 
       2.491044448840e-03       9.090666578906e+03 
       2.600409197033e-03       9.425005204672e+03 
       2.711003021116e-03       9.757974599802e+03 
       2.822718534726e-03       1.008914317465e+04 
       2.935458237063e-03       1.041813271037e+04 
       3.049133784040e-03       1.074460966139e+04 
       3.163665240381e-03       1.106828477265e+04 
       3.278980341692e-03       1.138890631452e+04 
       3.395013785775e-03       1.170625614746e+04 
       3.511706565126e-03       1.202014524265e+04 
       3.629005347186e-03       1.233041438186e+04 
       3.746861905099e-03       1.263692507498e+04 
       3.865232599123e-03       1.293956396514e+04 
       3.984077907112e-03       1.323823125591e+04 
       4.103362001432e-03       1.353284764352e+04 
       4.223052369057e-03       1.382334717819e+04 
       4.343119471342e-03       1.410967533926e+04 
       4.463536439883e-03       1.439179137427e+04 
       4.584278805001e-03       1.466966115856e+04 
       4.705324253529e-03       1.494326251111e+04 
       4.826652412830e-03       1.521258056179e+04 
       4.948244658228e-03       1.547760240977e+04 
       5.070083941267e-03       1.573832539492e+04 
       5.192154636504e-03       1.599475068119e+04 
       5.314442404742e-03       1.624688315125e+04 
       5.436934070856e-03       1.649473314835e+04 
       5.559617514578e-03       1.673831214523e+04 
       5.682481572746e-03       1.697764002708e+04 
       5.805515951766e-03       1.721273154647e+04 
       5.928711149100e-03       1.744360913631e+04 
       6.052058382800e-03       1.767030110056e+04 
       6.175549528174e-03       1.789282886017e+04 
       6.299177060802e-03       1.811121926239e+04 
       6.422934005212e-03       1.832550398502e+04 
       6.546813888582e-03       1.853570945426e+04 
       6.670810698946e-03       1.874187526172e+04 
       6.794918847406e-03       1.894402339623e+04 
       6.919133133927e-03       1.914219516191e+04 
       7.043448716349e-03       1.933642406890e+04 
       7.167861082270e-03       1.952674461793e+04 
       7.292366023506e-03       1.971318314270e+04 
       7.416959612869e-03       1.989579140431e+04 
       7.541638183027e-03       2.007460263609e+04 
       7.666398307236e-03       2.024965416628e+04 
       7.791236781762e-03       2.042097433575e+04 
       7.916150609827e-03       2.058861155522e+04 
       8.041136986927e-03       2.075260117615e+04 
       8.166193287399e-03       2.091297953324e+04 
       8.291317052110e-03       2.106978358069e+04 
       8.416505977172e-03       2.122307010446e+04 
       8.541757903578e-03       2.137285451900e+04 
       8.667070807681e-03       2.151918517804e+04 
       8.792442792440e-03       2.166210190248e+04 
       8.917872079361e-03       2.180163954671e+04 
       9.043357001071e-03       2.193783996491e+04 
       9.168895994478e-03       2.207073645327e+04 
       9.294487594446e-03       2.220036960862e+04 
       9.420130427972e-03       2.232677125594e+04 
       9.545823208789e-03       2.244998439319e+04 
       9.671564732383e-03       2.257004044444e+04 
       9.797353871381e-03       2.268698347052e+04 
       9.923189571279e-03       2.280085753263e+04 
       1.004907084648e-02       2.291166235889e+04 
       1.017499677664e-02       2.301948777865e+04 
       1.030096650323e-02       2.312432155232e+04 
       1.042697922641e-02       2.322622724645e+04 
       1.055303420209e-02       2.332521160827e+04 
       1.067913073918e-02       2.342134090549e+04 
       1.080526819708e-02       2.351463306093e+04 
       1.093144598333e-02       2.360514807102e+04 
       1.105766355139e-02       2.369284634555e+04 
       1.118392039865e-02       2.377787663013e+04 
       1.131021606448e-02       2.386017936864e+04 
       1.143655012852e-02       2.393981150085e+04 
       1.156292220900e-02       2.401679968356e+04 
       1.168933196123e-02       2.409121350363e+04 
       1.181577907619e-02       2.416306727883e+04 
       1.194226327918e-02       2.423234620545e+04 
       1.206878432863e-02       2.429913986376e+04 
       1.219534201490e-02       2.436344480628e+04 
       1.232193615929e-02       2.442532083206e+04 
       1.244856661299e-02       2.448481650896e+04 
       1.257523325621e-02       2.454187781823e+04 
       1.270193599728e-02       2.459664327544e+04 
       1.282867477192e-02       2.464902567609e+04 
       1.295544954248e-02       2.469916202154e+04 
       1.308226029724e-02       2.474697908058e+04 
       1.320910704985e-02       2.479262715309e+04 
       1.333598983871e-02       2.483602241704e+04 
       1.346290872644e-02       2.487723332416e+04 
       1.358986379944e-02       2.491632191286e+04 
       1.371685516739e-02       2.495325457926e+04 
       1.384388296290e-02       2.498807477770e+04 
       1.397094734110e-02       2.502088269778e+04 
       1.409804847935e-02       2.505158979478e+04 
       1.422518657691e-02       2.508031227658e+04 
       1.435236185467e-02       2.510699954994e+04 
       1.447957455495e-02       2.513175579923e+04 
       1.453563319488e-02       2.514196043801e+04 
       1.460682494129e-02       2.515452412981e+04 
       1.473411329822e-02       2.517538832838e+04 
       1.486143993117e-02       2.519440042753e+04 
       1.498880516633e-02       2.521149664207e+04 
       1.511620935052e-02       2.522674718099e+04 
       1.524365285115e-02       2.524018889036e+04 
       1.537113605613e-02       2.525184848400e+04 
       1.549865937390e-02       2.526174033800e+04 
       1.562622323333e-02       2.526981481639e+04 
       1.575382808381e-02       2.527621886918e+04 
       1.588147439525e-02       2.528089144729e+04 
       1.600916265812e-02       2.528389249198e+04 
       1.613689338354e-02       2.528528426383e+04 
       1.626466710336e-02       2.528496124710e+04 
       1.639248437025e-02       2.528305346077e+04 
       1.652034575789e-02       2.527956216171e+04 
       1.664825186101e-02       2.527449996971e+04 
       1.677620329565e-02       2.526786191056e+04 
       1.690420069928e-02       2.525978353030e+04 
       1.703224473101e-02       2.525017906640e+04 
       1.716033607180e-02       2.523902406588e+04 
       1.728847542471e-02       2.522648244328e+04 
       1.741666351509e-02       2.521244370542e+04 
       1.754490109093e-02       2.519706499315e+04 
       1.767318892304e-02       2.518026439400e+04 
       1.780152780542e-02       2.516211128897e+04 
       1.792991855554e-02       2.514254494616e+04 
       1.805836201466e-02       2.512159529627e+04 
       1.818685904820e-02       2.509944399837e+04 
       1.831541054609e-02       2.507599034191e+04 
       1.844401742313e-02       2.505123517658e+04 
       1.857268061942e-02       2.502521508253e+04 
       1.870140110074e-02       2.499795355891e+04 
       1.883017985901e-02       2.496955055842e+04 
       1.895901791271e-02       2.493990109401e+04 
       1.908791630734e-02       2.490910749695e+04 
       1.921687611595e-02       2.487709646418e+04 
       1.934589843959e-02       2.484408833450e+04 
       1.947498440784e-02       2.480987347939e+04 
       1.960413517938e-02       2.477457516400e+04 
       1.973335194251e-02       2.473823563638e+04 
       1.986263591573e-02       2.470077633858e+04 
       1.999198834837e-02       2.466231045417e+04 
       2.012141052117e-02       2.462283272023e+04 
       2.025090374694e-02       2.458233440087e+04 
       2.038046937121e-02       2.454084401999e+04 
       2.051010877292e-02       2.449840519102e+04 
       2.063982336510e-02       2.445499937994e+04 
       2.076961459564e-02       2.441071282920e+04 
       2.089948394799e-02       2.436549017808e+04 
       2.102943294198e-02       2.431933435387e+04 
       2.115946313458e-02       2.427229398858e+04 
       2.128957612075e-02       2.422443322582e+04 
       2.141977353427e-02       2.417573748909e+04 
       2.155005704865e-02       2.412618377802e+04 
       2.168042837798e-02       2.407585458131e+04 
       2.181088927794e-02       2.402465670784e+04 
       2.194144154667e-02       2.397274796477e+04 
       2.207208702585e-02       2.392001314417e+04 
       2.220282760166e-02       2.386658393547e+04 
       2.233366520588e-02       2.381243964543e+04 
       2.246460181695e-02       2.375747263626e+04 
       2.259563946109e-02       2.370185336650e+04 
       2.272678021349e-02       2.364556554196e+04 
       2.285802619947e-02       2.358860844835e+04 
       2.298937959575e-02       2.353101111963e+04 
       2.312084263168e-02       2.347271252227e+04 
       2.325241759057e-02       2.341378145726e+04 
       2.338410681105e-02       2.335433891774e+04 
       2.351591268847e-02       2.329414724251e+04 
       2.364783767631e-02       2.323346420249e+04 
       2.377988428770e-02       2.317220625853e+04 
       2.391205509694e-02       2.311027270013e+04 
       2.404435274109e-02       2.304789533833e+04 
       2.417677992160e-02       2.298500725927e+04 
       2.430933940600e-02       2.292155358623e+04 
       2.444203402965e-02       2.285764053429e+04 
       2.457486669754e-02       2.279314187362e+04 
       2.470784038613e-02       2.272822769186e+04 
       2.484095814532e-02       2.266277838391e+04 
       2.497422310038e-02       2.259699175249e+04 
       2.510763845405e-02       2.253070937092e+04 
       2.524120748863e-02       2.246395618834e+04 
       2.537493356820e-02       2.239675173172e+04 
       2.550882014087e-02       2.232930756793e+04 
       2.564287074114e-02       2.226128092573e+04 
       2.577708899232e-02       2.219298721542e+04 
       2.591147860904e-02       2.212426152138e+04 
       2.604604339985e-02       2.205518246648e+04 
       2.618078726993e-02       2.198576145976e+04 
       2.631571422386e-02       2.191605582976e+04 
       2.645082836848e-02       2.184592344509e+04 
       2.658613391594e-02       2.177555767546e+04 
       2.672163518675e-02       2.170483550752e+04 
       2.685733661298e-02       2.163382491166e+04 
       2.699324274163e-02       2.156254200471e+04 
       2.712935823805e-02       2.149103361429e+04 
       2.726568788951e-02       2.141910538474e+04 
       2.740223660892e-02       2.134714469695e+04 
       2.753900943868e-02       2.127479026254e+04 
       2.767601155469e-02       2.120220986724e+04 
       2.781324827043e-02       2.112940496414e+04 
       2.795072504137e-02       2.105638720418e+04 
       2.808844746935e-02       2.098327786277e+04 
       2.822642130727e-02       2.090987023073e+04 
       2.836465246393e-02       2.083624062394e+04 
       2.850314700900e-02       2.076250779796e+04 
       2.864191117832e-02       2.068853979542e+04 
       2.878095137924e-02       2.061443863777e+04 
       2.892027419635e-02       2.054019051358e+04 
       2.905988639732e-02       2.046577599976e+04 
       2.919979493904e-02       2.039123529327e+04 
       2.934000697399e-02       2.031656074524e+04 
       2.948052985690e-02       2.024180229771e+04 
       2.962137115167e-02       2.016684955087e+04 
       2.976253863858e-02       2.009176590600e+04 
       2.990404032186e-02       2.001665967801e+04 
       3.004588443753e-02       1.994142400342e+04 
       3.018807946158e-02       1.986614131293e+04 
       3.033063411859e-02       1.979076906318e+04 
       3.047355739063e-02       1.971533828993e+04 
       3.061685852663e-02       1.963955818139e+04 
       3.076054705216e-02       1.956413145872e+04 
       3.090463277965e-02       1.948847193134e+04 
       3.104912581904e-02       1.941277663658e+04 
       3.119403658906e-02       1.933696799125e+04 
       3.133937582884e-02       1.926113780522e+04 
       3.148515461026e-02       1.918529354228e+04 
       3.163138435079e-02       1.910953377251e+04 
       3.177807682697e-02       1.903356761151e+04 
       3.192524418854e-02       1.895765674600e+04 
       3.207289897329e-02       1.888171932288e+04 
       3.222105412266e-02       1.880582588563e+04 
       3.236972299806e-02       1.872976447848e+04 
       3.251891939811e-02       1.865393256558e+04 
       3.266865757667e-02       1.857802327099e+04 
       3.281895226191e-02       1.850208742848e+04 
       3.296981867627e-02       1.842617116688e+04 
       3.312127255756e-02       1.835024074388e+04 
       3.327333018116e-02       1.827432258838e+04 
       3.342600838339e-02       1.819871055644e+04 
       3.357932458625e-02       1.812272766806e+04 
       3.373329682338e-02       1.804703594167e+04 
       3.388794376765e-02       1.797121269015e+04 
       3.404328476011e-02       1.789548093275e+04 
       3.419933984081e-02       1.781982494876e+04 
       3.435612978119e-02       1.774420026844e+04 
       3.451367611853e-02       1.766844931930e+04 
       3.467200119232e-02       1.759291506776e+04 
       3.483112818289e-02       1.751762958871e+04 
       3.499108115232e-02       1.744206561154e+04 
       3.515188508786e-02       1.736659528913e+04 
       3.531356594811e-02       1.729114414393e+04 
       3.547615071197e-02       1.721576410408e+04 
       3.563966743082e-02       1.714069747240e+04 
       3.580414528400e-02       1.706541784923e+04 
       3.596961463789e-02       1.699029331048e+04 
       3.613610710890e-02       1.691510908393e+04 
       3.630365563070e-02       1.684026993068e+04 
       3.647229452593e-02       1.676515278774e+04 
       3.664205958289e-02       1.669025855347e+04 
       3.681298813753e-02       1.661536075582e+04 
       3.698511916119e-02       1.654050495476e+04 
       3.715849335466e-02       1.646570869987e+04 
       3.733315324901e-02       1.639101142436e+04 
       3.750914331380e-02       1.631633017262e+04 
       3.768651007341e-02       1.624181551897e+04 
       3.786530223208e-02       1.616720830176e+04 
       3.804557080858e-02       1.609268397349e+04 
       3.822736928137e-02       1.601809604746e+04 
       3.841075374513e-02       1.594364333524e+04 
       3.859578307993e-02       1.586927582611e+04 
       3.878251913410e-02       1.579490103746e+04 
       3.897102692229e-02       1.572051991641e+04 
       3.916137484004e-02       1.564610843936e+04 
       3.935363489678e-02       1.557184446569e+04 
       3.954788296897e-02       1.549758464836e+04 
       3.974419907557e-02       1.542327433073e+04 
       3.994266767822e-02       1.534899700903e+04 
       4.014337800878e-02       1.527476167580e+04 
       4.034642442726e-02       1.520043248262e+04 
       4.055190681356e-02       1.512607386112e+04 
       4.075993099685e-02       1.505184511372e+04 
       4.097060922701e-02       1.497751101960e+04 
       4.118406069299e-02       1.490320316805e+04 
       4.140041209395e-02       1.482867286891e+04 
       4.161979826940e-02       1.475417973676e+04 
       4.184236289596e-02       1.467972586210e+04 
       4.206825925907e-02       1.460504435770e+04 
       4.229765110945e-02       1.453039357088e+04 
       4.253071361560e-02       1.445560979385e+04 
       4.276763442527e-02       1.438072694539e+04 
       4.300861485101e-02       1.430568227727e+04 
       4.325387119727e-02       1.423053261155e+04 
       4.350363624949e-02       1.415518391878e+04 
       4.375816094906e-02       1.407972102639e+04 
       4.401771628207e-02       1.400397116454e+04 
       4.428259541489e-02       1.392816006980e+04 
       4.455311611533e-02       1.385195585555e+04 
       4.482962350564e-02       1.377563027511e+04 
       4.511249320189e-02       1.369898213157e+04 
       4.540213490528e-02       1.362199242545e+04 
       4.569899652358e-02       1.354461330655e+04 
       4.600356891681e-02       1.346704760018e+04 
       4.631639138093e-02       1.338893715832e+04 
       4.663805800722e-02       1.331049699822e+04 
       4.696922508511e-02       1.323141587977e+04 
       4.731061975356e-02       1.315196317886e+04 
       4.766305015287e-02       1.307182387791e+04 
       4.802741738729e-02       1.299103808965e+04 
       4.840472968330e-02       1.290963237470e+04 
       4.879611922195e-02       1.282737717374e+04 
       4.920286224287e-02       1.274432222107e+04 
       4.962640316930e-02       1.266034506882e+04 
       5.006838369685e-02       1.257530193559e+04 
       5.053067803480e-02       1.248908119101e+04 
       5.101543580257e-02       1.240156160347e+04 
       5.152513447940e-02       1.231250235582e+04 
       5.206264380084e-02       1.222179930723e+04 
       5.263130510189e-02       1.212923623396e+04 
       5.323502932412e-02       1.203444011638e+04 
       5.387841819685e-02       1.193710001261e+04 
       5.456691385969e-02       1.183681635192e+04 
       5.530698264359e-02       1.173301060438e+04 
       5.610633827820e-02       1.162497807218e+04 
       5.697420723471e-02       1.151186771193e+04 
       5.792163189745e-02       1.139245878102e+04 
       5.896179148813e-02       1.126518598616e+04 
