# total [l(l+1)/2pi] C_l's (units: [microK]^2)
# for l=2 to 3000, i.e. number of multipoles equal to 2999
#
# -> if you don't want to see such a header, set 'headers' to 'no' in input file
# -> for CMB lensing (d), these are C_l^dd for the deflection field.
#    Remember the conversion factors:
#    C_l^dd (deflection) = l(l+1) C_l^phi-phi
#    C_l^gg (shear/convergence) = 1/4 (l(l+1))^2 C_l^phi-phi
#
# 1:l     2:TT                     3:EE                     4:BB                     5:TE                     6:dd                     7:dT                     8:dE                 
    2       1.073206690311e+03       3.350889664443e-02       0.000000000000e+00       2.599668185445e+00       4.750142358550e-08       3.289040294057e-03      -1.250261143760e-05 
    3       1.006451887288e+03       4.109897185287e-02       0.000000000000e+00       2.911737059986e+00       5.867167292481e-08       3.285802556085e-03      -1.302449979672e-05 
    4       9.470058212484e+02       3.377717932415e-02       0.000000000000e+00       2.692835731964e+00       6.828971653124e-08       3.210514425002e-03      -1.051669424345e-05 
    5       9.036815417312e+02       2.134371120538e-02       0.000000000000e+00       2.259194854022e+00       7.678630014392e-08       3.108905965653e-03      -6.583815206756e-06 
    6       8.744194143934e+02       1.147516319275e-02       0.000000000000e+00       1.788832084991e+00       8.430991882891e-08       2.999805284385e-03      -2.533887246933e-06 
    7       8.558963682208e+02       6.311395352304e-03       0.000000000000e+00       1.381759684830e+00       9.104239052778e-08       2.891444869393e-03       6.867000215655e-07 
    8       8.451884160601e+02       4.361664401785e-03       0.000000000000e+00       1.078269565724e+00       9.710249524262e-08       2.786596787225e-03       2.581543684638e-06 
    9       8.401131798693e+02       3.589410684079e-03       0.000000000000e+00       8.828983541506e-01       1.025654957268e-07       2.687464027902e-03       3.093042591008e-06 
   10       8.396022343355e+02       2.970864642152e-03       0.000000000000e+00       7.801433724725e-01       1.074931123281e-07       2.595979783721e-03       2.509459190574e-06 
   11       8.421364507962e+02       2.410621390779e-03       0.000000000000e+00       7.464408821342e-01       1.086226617398e-07       2.520204694335e-03       1.329537698567e-06 
   12       8.472789413200e+02       2.070706923444e-03       0.000000000000e+00       7.579172349180e-01       1.124868005911e-07       2.432162618523e-03       3.169982776391e-08 
   13       8.544628176390e+02       1.970125606803e-03       0.000000000000e+00       7.941862181481e-01       1.159929203843e-07       2.355723044291e-03      -9.652975360185e-07 
   14       8.631309132210e+02       2.002968904187e-03       0.000000000000e+00       8.407389591003e-01       1.191790322717e-07       2.275157875887e-03      -1.470334080565e-06 
   15       8.729461823311e+02       2.095989364450e-03       0.000000000000e+00       8.900957142462e-01       1.220769925854e-07       2.202988956694e-03      -1.461447345104e-06 
   16       8.842263945565e+02       2.265119306112e-03       0.000000000000e+00       9.396843358351e-01       1.247153321817e-07       2.135674253562e-03      -1.085606617072e-06 
   17       8.963117910112e+02       2.560143645021e-03       0.000000000000e+00       9.893053200576e-01       1.271182456515e-07       2.069893659144e-03      -5.667475524549e-07 
   18       9.091104304730e+02       3.002814857302e-03       0.000000000000e+00       1.041333708032e+00       1.292568161397e-07       2.005230401065e-03      -1.280891942199e-07 
   19       9.227342741205e+02       3.583295577443e-03       0.000000000000e+00       1.097851283586e+00       1.312954012003e-07       1.944499596014e-03       1.151422921926e-07 
   20       9.368609862628e+02       4.278657067316e-03       0.000000000000e+00       1.160121915132e+00       1.330969776583e-07       1.887157642050e-03       1.017587465305e-07 
   21       9.515557822624e+02       5.086177126777e-03       0.000000000000e+00       1.226677531258e+00       1.347459735768e-07       1.833435279294e-03      -1.269643198974e-07 
   22       9.667637159843e+02       6.007366119114e-03       0.000000000000e+00       1.294557348780e+00       1.362174824153e-07       1.781292880195e-03      -4.527306093514e-07 
   23       9.824348846584e+02       7.040323202577e-03       0.000000000000e+00       1.361207102667e+00       1.375793598492e-07       1.732074759626e-03      -7.713292745358e-07 
   24       9.983838327802e+02       8.181686442031e-03       0.000000000000e+00       1.423932990618e+00       1.387836140392e-07       1.686444217290e-03      -9.740794635896e-07 
   25       1.014717164703e+03       9.435001384388e-03       0.000000000000e+00       1.480807940905e+00       1.398830277288e-07       1.643292626385e-03      -1.027743506493e-06 
   26       1.031498080454e+03       1.080778814266e-02       0.000000000000e+00       1.530345391019e+00       1.408559074628e-07       1.599673781606e-03      -9.423996148528e-07 
   27       1.048644162879e+03       1.231574719601e-02       0.000000000000e+00       1.572712833595e+00       1.417286921171e-07       1.556110907278e-03      -7.758657496298e-07 
   28       1.065965392304e+03       1.397667023965e-02       0.000000000000e+00       1.608757081525e+00       1.424660550573e-07       1.513706557889e-03      -6.131214717521e-07 
   29       1.083512509451e+03       1.579877382051e-02       0.000000000000e+00       1.639143361929e+00       1.431398042892e-07       1.473561610367e-03      -4.927909328457e-07 
   30       1.101328232964e+03       1.778671400908e-02       0.000000000000e+00       1.664691656268e+00       1.437694912895e-07       1.435928777749e-03      -4.421114862254e-07 
   31       1.119373061846e+03       1.994475438623e-02       0.000000000000e+00       1.686149212690e+00       1.442756413370e-07       1.400148605586e-03      -4.831204306116e-07 
   32       1.137645179417e+03       2.227924195323e-02       0.000000000000e+00       1.702875186220e+00       1.447024857345e-07       1.366282059203e-03      -5.933643988680e-07 
   33       1.156084698120e+03       2.479698694787e-02       0.000000000000e+00       1.713640971260e+00       1.450782584610e-07       1.333938261585e-03      -7.216906987819e-07 
   34       1.174586188798e+03       2.750441703818e-02       0.000000000000e+00       1.717095990927e+00       1.453673291561e-07       1.302138057603e-03      -8.092282339006e-07 
   35       1.193189466176e+03       3.040694914338e-02       0.000000000000e+00       1.712282739780e+00       1.456012426213e-07       1.271021548168e-03      -8.446600984241e-07 
   36       1.211943356131e+03       3.350933316514e-02       0.000000000000e+00       1.698283279103e+00       1.457864717986e-07       1.240744174850e-03      -8.347228156533e-07 
   37       1.230862175801e+03       3.681609627576e-02       0.000000000000e+00       1.674287808817e+00       1.458839750697e-07       1.211165251533e-03      -7.910174141540e-07 
   38       1.249968609261e+03       4.033264528044e-02       0.000000000000e+00       1.640320409309e+00       1.459319665050e-07       1.182596734573e-03      -7.280542272762e-07 
   39       1.269256417734e+03       4.406448704100e-02       0.000000000000e+00       1.596760637882e+00       1.459661304293e-07       1.155268481187e-03      -6.656075750301e-07 
   40       1.288672973707e+03       4.801691427935e-02       0.000000000000e+00       1.544162895204e+00       1.459734350804e-07       1.129058660582e-03      -6.302141112046e-07 
   41       1.308147629734e+03       5.219500837156e-02       0.000000000000e+00       1.483054492046e+00       1.459072827679e-07       1.103627326899e-03      -6.474769748683e-07 
   42       1.327699182156e+03       5.660368473110e-02       0.000000000000e+00       1.413225255552e+00       1.457903244584e-07       1.079081681879e-03      -7.122025243146e-07 
   43       1.347355513205e+03       6.124763705828e-02       0.000000000000e+00       1.334224543844e+00       1.456479323451e-07       1.055507641222e-03      -8.053527840932e-07 
   44       1.367121197363e+03       6.613130741626e-02       0.000000000000e+00       1.245549923078e+00       1.454727063383e-07       1.032749997957e-03      -9.005566578995e-07 
   45       1.386986470933e+03       7.125882198078e-02       0.000000000000e+00       1.146704782568e+00       1.452367720984e-07       1.010527550560e-03      -9.707787719060e-07 
   46       1.406963020861e+03       7.663380790933e-02       0.000000000000e+00       1.037401167634e+00       1.449645131284e-07       9.889496703476e-04      -1.014212948600e-06 
   47       1.427054793520e+03       8.225949824433e-02       0.000000000000e+00       9.174107662206e-01       1.446843976338e-07       9.681531510648e-04      -1.038279984635e-06 
   48       1.447245832294e+03       8.813876133359e-02       0.000000000000e+00       7.865081010231e-01       1.444045302648e-07       9.481408697545e-04      -1.053326380498e-06 
   49       1.467498521645e+03       9.427408412237e-02       0.000000000000e+00       6.444700694347e-01       1.441064366460e-07       9.287582150563e-04      -1.072968674380e-06 
   50       1.487773061488e+03       1.006676523646e-01       0.000000000000e+00       4.910851816621e-01       1.437571554865e-07       9.097788864533e-04      -1.110675284307e-06 
   51       1.508096195883e+03       1.073216556860e-01       0.000000000000e+00       3.261852986047e-01       1.433709984598e-07       8.912642651108e-04      -1.166977225769e-06 
   52       1.528508104730e+03       1.142380364465e-01       0.000000000000e+00       1.496217136291e-01       1.429684290977e-07       8.733053983065e-04      -1.237740326827e-06 
   53       1.549042065080e+03       1.214183881993e-01       0.000000000000e+00      -3.874379624145e-02       1.425565802931e-07       8.559128201261e-04      -1.317361084212e-06 
   54       1.569723694268e+03       1.288639435439e-01       0.000000000000e+00      -2.390389739979e-01       1.421255757953e-07       8.390037343362e-04      -1.398610213478e-06 
   55       1.590570243558e+03       1.365755956135e-01       0.000000000000e+00      -4.513684307075e-01       1.416570527163e-07       8.224582427040e-04      -1.474131774528e-06 
   56       1.611590007462e+03       1.445539966153e-01       0.000000000000e+00      -6.757720007243e-01       1.411648836163e-07       8.063449306903e-04      -1.541991291476e-06 
   57       1.632781441984e+03       1.527994624932e-01       0.000000000000e+00      -9.122560474494e-01       1.406670529097e-07       7.907547037176e-04      -1.601884990453e-06 
   58       1.654132362806e+03       1.613119308376e-01       0.000000000000e+00      -1.160804733783e+00       1.401727310391e-07       7.757316167425e-04      -1.653671442063e-06 
   59       1.675619190392e+03       1.700909500487e-01       0.000000000000e+00      -1.421379532718e+00       1.396799990994e-07       7.612657808064e-04      -1.697392513181e-06 
   60       1.697206195103e+03       1.791356685002e-01       0.000000000000e+00      -1.693918737941e+00       1.391733651909e-07       7.472859621792e-04      -1.733295151309e-06 
   61       1.718858724543e+03       1.884446846542e-01       0.000000000000e+00      -1.978358102413e+00       1.386320471151e-07       7.336985497571e-04      -1.761741889000e-06 
   62       1.740588062881e+03       1.980155826099e-01       0.000000000000e+00      -2.274699274716e+00       1.380658514603e-07       7.205380802776e-04      -1.782853486414e-06 
   63       1.762415346939e+03       2.078452725995e-01       0.000000000000e+00      -2.582955925433e+00       1.374902946343e-07       7.078533195095e-04      -1.796786848788e-06 
   64       1.784358167394e+03       2.179301058909e-01       0.000000000000e+00      -2.903134152050e+00       1.369158211831e-07       6.956609512249e-04      -1.803850647718e-06 
   65       1.806430257530e+03       2.282658595391e-01       0.000000000000e+00      -3.235232659929e+00       1.363465404688e-07       6.839413713901e-04      -1.804519902098e-06 
   66       1.828641181996e+03       2.388477211374e-01       0.000000000000e+00      -3.579242943278e+00       1.357788568674e-07       6.726343194399e-04      -1.799451044564e-06 
   67       1.850996025554e+03       2.496702735695e-01       0.000000000000e+00      -3.935149466120e+00       1.351999900896e-07       6.616343466372e-04      -1.789497473430e-06 
   68       1.873498057632e+03       2.607279379334e-01       0.000000000000e+00      -4.302912232612e+00       1.345943512203e-07       6.508287455457e-04      -1.775606668681e-06 
   69       1.896158048641e+03       2.720164406167e-01       0.000000000000e+00      -4.682409992362e+00       1.339695453345e-07       6.402357184996e-04      -1.758437671184e-06 
   70       1.918986290925e+03       2.835316174626e-01       0.000000000000e+00      -5.073485799239e+00       1.333378605604e-07       6.298994975725e-04      -1.738656700469e-06 
   71       1.941989559074e+03       2.952689784317e-01       0.000000000000e+00      -5.475963339205e+00       1.327085321487e-07       6.198495289417e-04      -1.717054063203e-06 
   72       1.965170874783e+03       3.072237040714e-01       0.000000000000e+00      -5.889646660878e+00       1.320870319361e-07       6.100985881193e-04      -1.694552475140e-06 
   73       1.988529271713e+03       3.193906419858e-01       0.000000000000e+00      -6.314319906108e+00       1.314743033993e-07       6.006408277555e-04      -1.672215602166e-06 
   74       2.012059560357e+03       3.317643033049e-01       0.000000000000e+00      -6.749747040545e+00       1.308659407259e-07       5.914497580147e-04      -1.651256820416e-06 
   75       2.035752092898e+03       3.443388591539e-01       0.000000000000e+00      -7.195671584210e+00       1.302513103332e-07       5.824761595245e-04      -1.633048195491e-06 
   76       2.059597556616e+03       3.571080069023e-01       0.000000000000e+00      -7.651836188689e+00       1.296182856881e-07       5.736675503799e-04      -1.618856502104e-06 
   77       2.083602883030e+03       3.700645485542e-01       0.000000000000e+00      -8.118046085804e+00       1.289716861026e-07       5.650377012463e-04      -1.608946273530e-06 
   78       2.107777826143e+03       3.832007287039e-01       0.000000000000e+00      -8.594116773369e+00       1.283197558990e-07       5.566121149432e-04      -1.603249356569e-06 
   79       2.132130061381e+03       3.965083518356e-01       0.000000000000e+00      -9.079855330322e+00       1.276686728651e-07       5.484070650251e-04      -1.601609829388e-06 
   80       2.156665053566e+03       4.099787761231e-01       0.000000000000e+00      -9.575060554260e+00       1.270221310535e-07       5.404285712698e-04      -1.603776391824e-06 
   81       2.181385924893e+03       4.236029072288e-01       0.000000000000e+00      -1.007952309899e+01       1.263808951166e-07       5.326713425134e-04      -1.609394535410e-06 
   82       2.206293322910e+03       4.373711921025e-01       0.000000000000e+00      -1.059302561206e+01       1.257423254442e-07       5.251176868323e-04      -1.617998493130e-06 
   83       2.231385288486e+03       4.512736127814e-01       0.000000000000e+00      -1.111534287231e+01       1.250998733629e-07       5.177363890726e-04      -1.629002968890e-06 
   84       2.256659449709e+03       4.652999470145e-01       0.000000000000e+00      -1.164623423161e+01       1.244462497893e-07       5.104950650500e-04      -1.641792132960e-06 
   85       2.282120310634e+03       4.794406133641e-01       0.000000000000e+00      -1.218541919911e+01       1.237853986158e-07       5.034033844319e-04      -1.656031387963e-06 
   86       2.307772934411e+03       4.936859554868e-01       0.000000000000e+00      -1.273259804272e+01       1.231234562177e-07       4.964784271977e-04      -1.671417249009e-06 
   87       2.333620633243e+03       5.080259860735e-01       0.000000000000e+00      -1.328745913313e+01       1.224651453016e-07       4.897315552598e-04      -1.687582497299e-06 
   88       2.359664875450e+03       5.224503851325e-01       0.000000000000e+00      -1.384967895202e+01       1.218135190209e-07       4.831678401275e-04      -1.704091956263e-06 
   89       2.385905192539e+03       5.369484982737e-01       0.000000000000e+00      -1.441892210023e+01       1.211696893059e-07       4.767854740402e-04      -1.720438163742e-06 
   90       2.412339086266e+03       5.515093349920e-01       0.000000000000e+00      -1.499484130597e+01       1.205325390379e-07       4.705751645696e-04      -1.736036940246e-06 
   91       2.438961935712e+03       5.661215669511e-01       0.000000000000e+00      -1.557707743303e+01       1.198984176961e-07       4.645195126911e-04      -1.750222853272e-06 
   92       2.465766904341e+03       5.807735262671e-01       0.000000000000e+00      -1.616525948900e+01       1.192608201081e-07       4.585923743245e-04      -1.762244577678e-06 
   93       2.492747582227e+03       5.954534131513e-01       0.000000000000e+00      -1.675901087643e+01       1.186130860353e-07       4.527680504470e-04      -1.771440255566e-06 
   94       2.519906569153e+03       6.101499582901e-01       0.000000000000e+00      -1.735796920419e+01       1.179582149376e-07       4.470527051648e-04      -1.777819686385e-06 
   95       2.547248016590e+03       6.248518573771e-01       0.000000000000e+00      -1.796176948479e+01       1.173013415881e-07       4.414587967419e-04      -1.781604211257e-06 
   96       2.574774952923e+03       6.395475717728e-01       0.000000000000e+00      -1.857003824951e+01       1.166468182082e-07       4.359955603910e-04      -1.783060441984e-06 
   97       2.602489228057e+03       6.542253296622e-01       0.000000000000e+00      -1.918239364226e+01       1.159980752180e-07       4.306687099372e-04      -1.782502835899e-06 
   98       2.630391458037e+03       6.688731272121e-01       0.000000000000e+00      -1.979844551352e+01       1.153574740566e-07       4.254801316227e-04      -1.780296325426e-06 
   99       2.658480969651e+03       6.834787297285e-01       0.000000000000e+00      -2.041779551420e+01       1.147261519029e-07       4.204275700541e-04      -1.776859002357e-06 
  100       2.686755745050e+03       6.980296728147e-01       0.000000000000e+00      -2.104003718956e+01       1.141038581267e-07       4.155043062906e-04      -1.772664856835e-06 
  101       2.715212366355e+03       7.125132635280e-01       0.000000000000e+00      -2.166475607311e+01       1.134887822989e-07       4.106988280735e-04      -1.768246571057e-06 
  102       2.743845960274e+03       7.269165815380e-01       0.000000000000e+00      -2.229152978049e+01       1.128773735915e-07       4.059944921986e-04      -1.764198367683e-06 
  103       2.772650142706e+03       7.412264802835e-01       0.000000000000e+00      -2.291992810337e+01       1.122641513963e-07       4.013691790281e-04      -1.761178912958e-06 
  104       2.801618817049e+03       7.554298859394e-01       0.000000000000e+00      -2.354951617054e+01       1.116437495870e-07       3.968021436240e-04      -1.759770385281e-06 
  105       2.830751965042e+03       7.695147378173e-01       0.000000000000e+00      -2.417986421513e+01       1.110181335092e-07       3.922969385174e-04      -1.760016455598e-06 
  106       2.860050538562e+03       7.834691777482e-01       0.000000000000e+00      -2.481053930802e+01       1.103909424370e-07       3.878624625601e-04      -1.761796479785e-06 
  107       2.889514641193e+03       7.972812679950e-01       0.000000000000e+00      -2.544110253447e+01       1.097653411759e-07       3.835060273817e-04      -1.764959570787e-06 
