# total lensed [l(l+1)/2pi] C_l's (units: [microK]^2)
# for l=2 to 2500, i.e. number of multipoles equal to 2499
#
# -> if you don't want to see such a header, set 'headers' to 'no' in input file
# -> for CMB lensing (d), these are C_l^dd for the deflection field.
#    Remember the conversion factors:
#    C_l^dd (deflection) = l(l+1) C_l^phi-phi
#    C_l^gg (shear/convergence) = 1/4 (l(l+1))^2 C_l^phi-phi
#
# 1:l     2:TT                     3:EE                     4:BB                     5:TE                     6:dd                     7:dT                     8:dE                 
    2       1.036394999764e+03       3.192893484995e-02       1.836444896776e-06       2.585242344018e+00       4.762570830039e-08       3.127778050555e-03      -1.233113008305e-05 
    3       9.756946492629e+02       4.053613794088e-02       3.673540889981e-06       2.920477645905e+00       5.881948818781e-08       3.123705480671e-03      -1.314173364552e-05 
    4       9.199895233433e+02       3.461329293092e-02       6.124003425834e-06       2.732099644034e+00       6.819208627741e-08       3.045246092786e-03      -1.099507556372e-05 
    5       8.787546553606e+02       2.275816130974e-02       9.188668630749e-06       2.322279401641e+00       7.635265310369e-08       2.940253791830e-03      -7.345384615233e-06 
    6       8.505152121214e+02       1.257104712019e-02       1.286855480114e-05       1.863716921556e+00       8.352839269148e-08       2.825889045588e-03      -3.409725307776e-06 
    7       8.320154022577e+02       6.790238290637e-03       1.716484556987e-05       1.456740496660e+00       8.988968021741e-08       2.710475336875e-03      -1.151321323522e-07 
    8       8.212241204923e+02       4.438803520525e-03       2.207887073502e-05       1.145207154972e+00       9.556394606526e-08       2.599843628461e-03       2.002486059121e-06 
    9       8.161330180032e+02       3.583825284717e-03       2.761208525652e-05       9.384334466661e-01       1.006474144495e-07       2.497443172550e-03       2.807621251890e-06 
   10       8.149248877822e+02       3.038298980855e-03       3.376604696680e-05       8.255399449271e-01       1.051984041751e-07       2.403019236075e-03       2.500762375414e-06 
   11       8.171154937187e+02       2.545620758544e-03       4.054239356528e-05       7.854822953516e-01       1.062200453622e-07       2.323965563936e-03       1.507875939733e-06 
   12       8.215407361443e+02       2.231221300528e-03       4.794281947145e-05       7.950995108141e-01       1.096923805887e-07       2.232763249272e-03       2.789633564186e-07 
   13       8.277261302901e+02       2.155821169104e-03       5.596905309936e-05       8.344964021589e-01       1.128006239629e-07       2.150161528729e-03      -7.696364937985e-07 
   14       8.356969980681e+02       2.245547995458e-03       6.462283508646e-05       8.885765539706e-01       1.155883117218e-07       2.075976549047e-03      -1.391983982960e-06 
   15       8.450935781303e+02       2.418821903350e-03       7.390589796391e-05       9.475720212268e-01       1.180883014028e-07       2.000821445187e-03      -1.535512746728e-06 
   16       8.550713449375e+02       2.669871926678e-03       8.381994769562e-05       1.007194236515e+00       1.203303292489e-07       1.930867875930e-03      -1.281901288280e-06 
   17       8.662001246136e+02       3.044092182022e-03       9.436664744087e-05       1.066752275202e+00       1.223397759193e-07       1.864267487098e-03      -8.184077781785e-07 
   18       8.779476152571e+02       3.575922946735e-03       1.055476029143e-04       1.127891131654e+00       1.240910934091e-07       1.801170443368e-03      -3.599754832831e-07 
   19       8.903818964562e+02       4.263493706792e-03       1.173643558239e-04       1.192354578732e+00       1.257479368312e-07       1.743883060902e-03      -4.000009173814e-08 
   20       9.034905224647e+02       5.088974831452e-03       1.298183654896e-04       1.261441995558e+00       1.271756076701e-07       1.690052010304e-03       3.981443294952e-08 
   21       9.171911559696e+02       6.048676224135e-03       1.429110178403e-04       1.334448811344e+00       1.284582492049e-07       1.639207401360e-03      -1.087439126000e-07 
   22       9.311781911833e+02       7.141233732632e-03       1.566436056327e-04       1.409450277701e+00       1.295721091457e-07       1.589212343143e-03      -3.944092322014e-07 
   23       9.456077559778e+02       8.366919692031e-03       1.710173472334e-04       1.484072051129e+00       1.305847076730e-07       1.541115636123e-03      -7.206047822383e-07 
   24       9.605995848639e+02       9.725491583989e-03       1.860333664447e-04       1.555420176557e+00       1.314494316322e-07       1.495692875893e-03      -9.728962895087e-07 
   25       9.760478776407e+02       1.121877354073e-02       2.016927232206e-04       1.621027325553e+00       1.322186976195e-07       1.453606543774e-03      -1.096982510218e-06 
   26       9.916829113941e+02       1.285108719229e-02       2.179963891680e-04       1.678716159648e+00       1.328717132617e-07       1.414170749819e-03      -1.071990555447e-06 
   27       1.007542598082e+03       1.463834354131e-02       2.349452787738e-04       1.728237807385e+00       1.334343746267e-07       1.376545155375e-03      -9.393935473785e-07 
   28       1.023685107249e+03       1.659978338170e-02       2.525402328134e-04       1.770107788018e+00       1.338718068541e-07       1.339173333546e-03      -7.744707698692e-07 
   29       1.040166593633e+03       1.874549748310e-02       2.707820766301e-04       1.804786297316e+00       1.342543694619e-07       1.302906238765e-03      -6.203568612282e-07 
   30       1.056948012493e+03       2.108241745834e-02       2.896715686485e-04       1.832935574705e+00       1.346017494752e-07       1.268896376650e-03      -5.184908455224e-07 
   31       1.073914703645e+03       2.361697362481e-02       3.092094014569e-04       1.855230355438e+00       1.348370053256e-07       1.237561782122e-03      -5.100735539184e-07 
   32       1.091100744871e+03       2.635577531486e-02       3.293962862038e-04       1.871288567375e+00       1.350031834580e-07       1.208658228042e-03      -5.854177409315e-07 
   33       1.108529593585e+03       2.930508862635e-02       3.502328955078e-04       1.880332767903e+00       1.351275241779e-07       1.180883909933e-03      -7.062897752168e-07 
   34       1.126175394226e+03       3.247090886342e-02       3.717198564796e-04       1.881463805774e+00       1.351750426251e-07       1.152394637194e-03      -8.242661647938e-07 
   35       1.144063566959e+03       3.586000442346e-02       3.938578089838e-04       1.873692874699e+00       1.351762503042e-07       1.123663397426e-03      -9.148320404628e-07 
   36       1.162192867305e+03       3.947918828541e-02       4.166473665953e-04       1.855902217466e+00       1.351375378149e-07       1.095827651732e-03      -9.576526889437e-07 
   37       1.180527175378e+03       4.333486943049e-02       4.400891088994e-04       1.827065036300e+00       1.350211980168e-07       1.069822527971e-03      -9.352705841310e-07 
   38       1.199080946712e+03       4.743253115468e-02       4.641836086371e-04       1.787065550936e+00       1.348640416554e-07       1.045906893070e-03      -8.604987015541e-07 
   39       1.217853142635e+03       5.177702952356e-02       4.889314138197e-04       1.736154382973e+00       1.347003963707e-07       1.023812078873e-03      -7.626202259919e-07 
   40       1.236798629740e+03       5.637268901629e-02       5.143330409784e-04       1.674741406863e+00       1.345175697428e-07       1.002752708160e-03      -6.823683374047e-07 
   41       1.255856282945e+03       6.122362681199e-02       5.403889692681e-04       1.603238089097e+00       1.342704860683e-07       9.817256525879e-04      -6.610571194670e-07 
   42       1.275055049497e+03       6.633493522368e-02       5.670996195001e-04       1.521499569998e+00       1.339807811645e-07       9.608203660611e-04      -6.976233954491e-07 
   43       1.294434884156e+03       7.171182634459e-02       5.944653689624e-04       1.429217210966e+00       1.336727794099e-07       9.403824418887e-04      -7.734859027013e-07 
   44       1.314014960978e+03       7.735929708727e-02       6.224865571003e-04       1.326068420035e+00       1.333393774715e-07       9.206517030319e-04      -8.622981102827e-07 
   45       1.333799520824e+03       8.328191492946e-02       6.511634663277e-04       1.211720507327e+00       1.329538223750e-07       9.017691605490e-04      -9.362961504301e-07 
   46       1.353802770196e+03       8.948312185820e-02       6.804962577073e-04       1.085848040072e+00       1.325392942571e-07       8.838641600397e-04      -9.912401344442e-07 
   47       1.374027620819e+03       9.596570566557e-02       7.104850159758e-04       9.481174896940e-01       1.321228575719e-07       8.669625526792e-04      -1.030818575016e-06 
   48       1.394456525811e+03       1.027319653260e-01       7.411297659131e-04       7.981804503957e-01       1.317121081269e-07       8.509346717932e-04      -1.060432600694e-06 
   49       1.415049708199e+03       1.097836894233e-01       7.724304712013e-04       6.356720958922e-01       1.312892634634e-07       8.354701596382e-04      -1.087404095528e-06 
   50       1.435763981176e+03       1.171222785744e-01       8.043870222071e-04       4.602531714243e-01       1.308227089059e-07       8.201930294946e-04      -1.119415742394e-06 
   51       1.456619341141e+03       1.247492019245e-01       8.369991980701e-04       2.717529876269e-01       1.303258947515e-07       8.051270585508e-04      -1.158544146892e-06 
   52       1.477647388479e+03       1.326656272727e-01       8.702666923503e-04       7.006257309652e-02       1.298181618642e-07       7.903715267521e-04      -1.205204381041e-06 
   53       1.498871532279e+03       1.408722734589e-01       9.041891215819e-04      -1.449049750530e-01       1.293061988954e-07       7.759664075146e-04      -1.259708265148e-06 
   54       1.520306187875e+03       1.493693955683e-01       9.387660236099e-04      -3.732139857389e-01       1.287805692377e-07       7.618824284798e-04      -1.322247542964e-06 
   55       1.541959196065e+03       1.581569164553e-01       9.739968846840e-04      -6.149102775363e-01       1.282237834582e-07       7.480608530431e-04      -1.392582558566e-06 
   56       1.563841622874e+03       1.672348934784e-01       1.009881232430e-03      -8.700356896460e-01       1.276488388689e-07       7.345752785307e-04      -1.469013378124e-06 
   57       1.585958988697e+03       1.766031417952e-01       1.046418563063e-03      -1.138616275393e+00       1.270726226675e-07       7.215110553754e-04      -1.548999775919e-06 
   58       1.608307597738e+03       1.862610893015e-01       1.083608314122e-03      -1.420657729112e+00       1.265036961589e-07       7.089145693840e-04      -1.629368854442e-06 
   59       1.630873861065e+03       1.962077675359e-01       1.121449863930e-03      -1.716145058706e+00       1.259401577047e-07       6.967872225298e-04      -1.706257555138e-06 
   60       1.653633619686e+03       2.064418025838e-01       1.159942531050e-03      -2.025042258221e+00       1.253673105335e-07       6.850791511784e-04      -1.775053160568e-06 
   61       1.676562468530e+03       2.169610250136e-01       1.199085658907e-03      -2.347297177668e+00       1.247654660535e-07       6.737202072823e-04      -1.831379371718e-06 
   62       1.699670967760e+03       2.277612179502e-01       1.238878893079e-03      -2.682858150621e+00       1.241437251357e-07       6.627406125877e-04      -1.874591068467e-06 
   63       1.722976169758e+03       2.388370705739e-01       1.279321965567e-03      -3.031660534808e+00       1.235165677831e-07       6.521789940234e-04      -1.905338806008e-06 
   64       1.746490994242e+03       2.501825135277e-01       1.320414617241e-03      -3.393621684875e+00       1.228937139041e-07       6.420447578690e-04      -1.924655584286e-06 
   65       1.770223900386e+03       2.617906977337e-01       1.362156599999e-03      -3.768640789858e+00       1.222789450045e-07       6.323142995666e-04      -1.933993513479e-06 
   66       1.794178558934e+03       2.736539732094e-01       1.404547678929e-03      -4.156598710649e+00       1.216688268056e-07       6.229270671318e-04      -1.935261713819e-06 
   67       1.818353524324e+03       2.857638678846e-01       1.447587634468e-03      -4.557357817472e+00       1.210513296327e-07       6.137814781623e-04      -1.930865449754e-06 
   68       1.842745883751e+03       2.981118725193e-01       1.491276352365e-03      -4.970763445217e+00       1.204117905191e-07       6.047703457189e-04      -1.923240152186e-06 
   69       1.867363795894e+03       3.106920274976e-01       1.535614109927e-03      -5.396648965193e+00       1.197572170279e-07       5.959095667398e-04      -1.913193964366e-06 
   70       1.892215915518e+03       3.234988245396e-01       1.580601351920e-03      -5.834831453793e+00       1.190989932237e-07       5.872406954108e-04      -1.901136847972e-06 
   71       1.917307419208e+03       3.365264464196e-01       1.626238612225e-03      -6.285110046575e+00       1.184456555178e-07       5.787931240238e-04      -1.887547944023e-06 
   72       1.942639779197e+03       3.497687663982e-01       1.672526518238e-03      -6.747265817107e+00       1.178022343572e-07       5.705824883396e-04      -1.872979758965e-06 
   73       1.968210537198e+03       3.632193476558e-01       1.719465795284e-03      -7.221061655817e+00       1.171695456257e-07       5.626090153880e-04      -1.858062450746e-06 
   74       1.994013078232e+03       3.768714427252e-01       1.767057271013e-03      -7.706242148840e+00       1.165434303094e-07       5.548558137034e-04      -1.843508214911e-06 
   75       2.020036404462e+03       3.907179929244e-01       1.815301879815e-03      -8.202533456869e+00       1.159139409734e-07       5.472871059972e-04      -1.830115770692e-06 
   76       2.046269843607e+03       4.047512816008e-01       1.864200666936e-03      -8.709653350982e+00       1.152697407324e-07       5.398636900661e-04      -1.818645455223e-06 
   77       2.072718665405e+03       4.189618221176e-01       1.913754791983e-03      -9.227343700762e+00       1.146152273148e-07       5.325984081695e-04      -1.809394273941e-06 
   78       2.099390915214e+03       4.333392651135e-01       1.963965534065e-03      -9.755343717965e+00       1.139579813008e-07       5.255124496469e-04      -1.802513500663e-06 
   79       2.126292609099e+03       4.478727191601e-01       2.014834296466e-03      -1.029338041082e+01       1.133036702460e-07       5.186184794060e-04      -1.798124987711e-06 
   80       2.153427608848e+03       4.625507430962e-01       2.066362611038e-03      -1.084116867114e+01       1.126556648819e-07       5.119197017796e-04      -1.796317769317e-06 
   81       2.180797496991e+03       4.773613383609e-01       2.118552142607e-03      -1.139841136148e+01       1.120146291953e-07       5.054088946204e-04      -1.797144556778e-06 
   82       2.208401451816e+03       4.922919413284e-01       2.171404693367e-03      -1.196479940225e+01       1.113780837097e-07       4.990674136329e-04      -1.800618125339e-06 
   83       2.236236122391e+03       5.073294156415e-01       2.224922207285e-03      -1.254001185881e+01       1.107399412945e-07       4.928641669435e-04      -1.806707592825e-06 
   84       2.264297799479e+03       5.224604956286e-01       2.279106717769e-03      -1.312371189859e+01       1.100934292388e-07       4.867672404977e-04      -1.815311776454e-06 
   85       2.292589615571e+03       5.376732178075e-01       2.333960171082e-03      -1.371553370141e+01       1.094421275384e-07       4.807844993811e-04      -1.826180257508e-06 
   86       2.321115314872e+03       5.529557137424e-01       2.389484581583e-03      -1.431509352883e+01       1.087916370089e-07       4.749311003397e-04      -1.838965777654e-06 
   87       2.349876978398e+03       5.682957799779e-01       2.445682089252e-03      -1.492199367865e+01       1.081462568375e-07       4.692172004962e-04      -1.853240138658e-06 
   88       2.378874937584e+03       5.836808779536e-01       2.502554963134e-03      -1.553582250269e+01       1.075087505085e-07       4.636474527430e-04      -1.868488734971e-06 
   89       2.408107687887e+03       5.990981339195e-01       2.560105604785e-03      -1.615615442445e+01       1.068800973222e-07       4.582204865049e-04      -1.884104950838e-06 
   90       2.437571802392e+03       6.145343388514e-01       2.618336551720e-03      -1.678254995686e+01       1.062592291715e-07       4.529283738729e-04      -1.899384421907e-06 
   91       2.467261845416e+03       6.299759483657e-01       2.677250480859e-03      -1.741455571995e+01       1.056427522370e-07       4.477560811088e-04      -1.913519161361e-06 
   92       2.497170286111e+03       6.454090826350e-01       2.736850211973e-03      -1.805170445860e+01       1.050246532636e-07       4.426809055199e-04      -1.925591550565e-06 
   93       2.527289820637e+03       6.608197534822e-01       2.797138708020e-03      -1.869352335717e+01       1.043987756661e-07       4.376806448058e-04      -1.934782987680e-06 
   94       2.557620925841e+03       6.761945849186e-01       2.858119068734e-03      -1.933956037526e+01       1.037678194968e-07       4.327615153865e-04      -1.941067715239e-06 
   95       2.588165287201e+03       6.915202013221e-01       2.919794542442e-03      -1.998936192403e+01       1.031364435269e-07       4.279354393829e-04      -1.944663570139e-06 
   96       2.618923438869e+03       7.067830129072e-01       2.982168532439e-03      -2.064246505206e+01       1.025085910493e-07       4.232115932002e-04      -1.945833164694e-06 
   97       2.649894710331e+03       7.219692187586e-01       3.045244600401e-03      -2.129839757691e+01       1.018873634298e-07       4.185961468805e-04      -1.944886423696e-06 
   98       2.681077173083e+03       7.370648098644e-01       3.109026469781e-03      -2.195667821679e+01       1.012748864742e-07       4.140919965323e-04      -1.942183175186e-06 
   99       2.712467587290e+03       7.520555721504e-01       3.173518029216e-03      -2.261681672209e+01       1.006721694582e-07       4.096984898358e-04      -1.938135794958e-06 
  100       2.744061348455e+03       7.669270895134e-01       3.238723335929e-03      -2.327831400703e+01       1.000789566644e-07       4.054111446230e-04      -1.933211904770e-06 
  101       2.775852434087e+03       7.816647468550e-01       3.304646619135e-03      -2.394066228126e+01       9.949357127368e-08       4.012213605346e-04      -1.927937124285e-06 
  102       2.807833350363e+03       7.962537331148e-01       3.371292283446e-03      -2.460334518145e+01       9.891275145654e-08       3.971161237517e-04      -1.922897876730e-06 
  103       2.839995078802e+03       8.106790443047e-01       3.438664912267e-03      -2.526583790288e+01       9.833147850984e-08       3.930777048042e-04      -1.918744248274e-06 
  104       2.872328972670e+03       8.249258534542e-01       3.506769214924e-03      -2.592761199159e+01       9.774483683595e-08       3.890894025417e-04      -1.916052421725e-06 
  105       2.904832852848e+03       8.389806708289e-01       3.575609852550e-03      -2.658815017446e+01       9.715457927245e-08       3.851547909151e-04      -1.914873631446e-06 
  106       2.937505639835e+03       8.528303468254e-01       3.645191594908e-03      -2.724693378708e+01       9.656398127973e-08       3.812817836404e-04      -1.915099514164e-06 
  107       2.970345446014e+03       8.664617260361e-01       3.715519377334e-03      -2.790343847281e+01       9.597588722209e-08       3.774767955400e-04      -1.916593030157e-06 
